EC-Lab ASCII FILE
Nb header lines : 61                          

Chronoamperometry / Chronocoulometry

Run on channel : 1 (SN 21648)
User : 
CE vs. WE compliance from -10 V to 10 V
Electrode connection : standard
Potential control : Ewe
Ewe ctrl range : min = -2.50 V, max = 2.50 V
Safety Limits :
	Do not start on E overload
Acquisition started on : 01/31/2023 10:44:48.640
Loaded Setting File :  C:\Users\grupogalan\Documents\EC-Lab\Data\Scott\_cyclic_pause_tafel.mps
Saved on :
	File : 2023_01_31 NiNx 1 mg 307ref set2_04_CA_C01.mpr
	Directory : C:\Users\grupogalan\Documents\EC-Lab\Data\Scott\
	Host : 169.254.104.159
Device : VSP (SN 1176)
Address : USB
EC-Lab for windows v11.46 (software)
Internet server v11.40 (firmware)
Command interpretor v11.40 (firmware)
Electrode material : 
Initial state : 
Electrolyte : 
Comments : 
Electrode surface area : 0.001 cm²
Characteristic mass : 0.001 g
Equivalent Weight : 0.000 g/eq.
Density : 0.000 g/cm3
Volume (V) : 0.001 cm³
Cycle Definition : Charge/Discharge alternance
Ei (V)              0.707               
vs.                 Ref                 
ti (h:m:s)          0:00:10.0000        
Imax                pass                
unit Imax           mA                  
Imin                pass                
unit Imin           mA                  
dQM                 0.000               
unit dQM            mA.h                
record              <I>                 
dI                  5.000               
unit dI             µA                  
dQ                  0.000               
unit dQ             mA.h                
dt (s)              0.1000              
dta (s)             0.1000              
E range min (V)     -2.500              
E range max (V)     2.500               
I Range             Auto                
I Range min         Unset               
I Range max         Unset               
I Range init        Unset               
Bandwidth           5                   
goto Ns'            0                   
nc cycles           0                   

mode	ox/red	error	control changes	Ns changes	counter inc.	Ns	time/s	control/V	Ewe/V	<I>/mA	dQ/C	(Q-Qo)/C	I Range	Q charge/discharge/mA.h	half cycle	Energy charge/W.h	Energy discharge/W.h	Capacitance charge/µF	Capacitance discharge/µF	Q discharge/mA.h	Q charge/mA.h	Capacity/mA.h	Efficiency/%	cycle number	P/W	
2	1	0	1	0	0	0	2.994655124348647E+003	7.0701301E-001	7.0652598E-001	1.329581141471863E-001	1.8454122E-005	1.8454122E-005	11	5.126145070890844E-006	0	3.621754677144431E-009	0.000000000000000E+000	0.000000000000000E+000	0.000000000000000E+000	0.000000000000000E+000	5.126145070890844E-006	5.126145070890844E-006	0.0000000E+000	0.000000000000000E+000	9.3938361E-005
2	1	0	1	0	0	0	2.994785124345362E+003	7.0701301E-001	7.0692694E-001	1.392903625965118E-001	3.7646045E-005	3.7646045E-005	12	1.045723466732953E-005	0	7.390445542398564E-009	0.000000000000000E+000	9.388967224547533E+004	0.000000000000000E+000	0.000000000000000E+000	1.045723466732953E-005	1.045723466732953E-005	0.0000000E+000	0.000000000000000E+000	9.8468110E-005
2	1	0	1	0	0	0	2.994885124342836E+003	7.0701301E-001	7.0711792E-001	1.487657697498797E-001	5.2522621E-005	5.2522621E-005	12	1.458961681540435E-005	0	1.031252699156278E-008	0.000000000000000E+000	8.873057593488823E+004	0.000000000000000E+000	0.000000000000000E+000	1.458961681540435E-005	1.458961681540435E-005	0.0000000E+000	0.000000000000000E+000	1.0519494E-004
2	1	0	1	0	0	0	2.994985124340310E+003	7.0701301E-001	7.0707971E-001	1.486148311793807E-001	6.7384106E-005	6.7384106E-005	12	1.871780720345366E-005	0	1.323148664809177E-008	0.000000000000000E+000	1.216918945312500E+005	0.000000000000000E+000	0.000000000000000E+000	1.871780720345366E-005	1.871780720345366E-005	0.0000000E+000	0.000000000000000E+000	1.0508253E-004
2	1	0	1	0	0	0	2.995085124337784E+003	7.0701301E-001	7.0769066E-001	1.481021589338773E-001	8.2194318E-005	8.2194318E-005	12	2.283175490447320E-005	0	1.614288899613768E-008	0.000000000000000E+000	7.057276465143616E+004	0.000000000000000E+000	0.000000000000000E+000	2.283175490447320E-005	2.283175490447320E-005	0.0000000E+000	0.000000000000000E+000	1.0481051E-004
2	1	0	1	0	0	0	2.995185124335258E+003	7.0701301E-001	7.0715606E-001	1.478357777893543E-001	9.6977899E-005	9.6977899E-005	12	2.693830538191833E-005	0	1.904686106069008E-008	0.000000000000000E+000	1.539134580492917E+005	0.000000000000000E+000	0.000000000000000E+000	2.693830538191833E-005	2.693830538191833E-005	0.0000000E+000	0.000000000000000E+000	1.0454297E-004
2	1	0	1	0	0	0	2.995285124332731E+003	7.0701301E-001	7.0713699E-001	1.472867808639999E-001	1.1170658E-004	1.1170658E-004	12	3.102960464376439E-005	0	2.193997010033627E-008	0.000000000000000E+000	1.828236626876341E+005	0.000000000000000E+000	0.000000000000000E+000	3.102960464376439E-005	3.102960464376439E-005	0.0000000E+000	0.000000000000000E+000	1.0415193E-004
2	1	0	1	0	0	0	2.995385124330205E+003	7.0701301E-001	7.0694607E-001	1.465340175032614E-001	1.2635998E-004	1.2635998E-004	12	3.509999563296636E-005	0	2.481751703371580E-008	0.000000000000000E+000	3.007901177639047E+005	0.000000000000000E+000	0.000000000000000E+000	3.509999563296636E-005	3.509999563296636E-005	0.0000000E+000	0.000000000000000E+000	1.0359165E-004
2	1	0	1	0	0	0	2.995485124327679E+003	7.0701301E-001	7.0721334E-001	1.457343497276300E-001	1.4093341E-004	1.4093341E-004	12	3.914816867715368E-005	0	2.768043902205813E-008	0.000000000000000E+000	2.050355718733741E+005	0.000000000000000E+000	0.000000000000000E+000	3.914816867715368E-005	3.914816867715368E-005	0.0000000E+000	0.000000000000000E+000	1.0306528E-004
2	1	0	1	0	0	0	2.995585124325153E+003	7.0701301E-001	7.0778614E-001	1.449320997297758E-001	1.5542662E-004	1.5542662E-004	12	4.317406112224692E-005	0	3.052990990720333E-008	0.000000000000000E+000	1.233386612696292E+005	0.000000000000000E+000	0.000000000000000E+000	4.317406112224692E-005	4.317406112224692E-005	0.0000000E+000	0.000000000000000E+000	1.0258093E-004
2	1	0	1	0	0	0	2.995685124322627E+003	7.0701301E-001	7.0728976E-001	1.445556059777733E-001	1.6988219E-004	1.6988219E-004	12	4.718949639936909E-005	0	3.336998614196030E-008	0.000000000000000E+000	2.224247031749942E+005	0.000000000000000E+000	0.000000000000000E+000	4.718949639936909E-005	4.718949639936909E-005	0.0000000E+000	0.000000000000000E+000	1.0224270E-004
2	1	0	1	0	0	0	2.995785124320100E+003	7.0701301E-001	7.0732790E-001	1.439839643836023E-001	1.8428058E-004	1.8428058E-004	12	5.118904987789897E-005	0	3.619898191413369E-008	0.000000000000000E+000	2.297989510844823E+005	0.000000000000000E+000	0.000000000000000E+000	5.118904987789897E-005	5.118904987789897E-005	0.0000000E+000	0.000000000000000E+000	1.0184388E-004
2	1	0	1	0	0	0	2.995885124317574E+003	7.0701301E-001	7.0774794E-001	1.432301781773564E-001	1.9860359E-004	1.9860359E-004	12	5.516766476729471E-005	0	3.901483839123219E-008	0.000000000000000E+000	1.625294073879018E+005	0.000000000000000E+000	0.000000000000000E+000	5.516766476729471E-005	5.516766476729471E-005	0.0000000E+000	0.000000000000000E+000	1.0137086E-004
2	1	0	1	0	0	0	2.995985124315048E+003	7.0701301E-001	7.0671695E-001	1.424045701026916E-001	2.1284405E-004	2.1284405E-004	12	5.912334826360974E-005	0	4.181038698553703E-008	0.000000000000000E+000	1.114522679170568E+006	0.000000000000000E+000	0.000000000000000E+000	5.912334826360974E-005	5.912334826360974E-005	0.0000000E+000	0.000000000000000E+000	1.0063972E-004
2	1	0	1	0	0	0	2.996085124312522E+003	7.0701301E-001	7.0686966E-001	1.418651339411735E-001	2.2703057E-004	2.2703057E-004	12	6.306404732943822E-005	0	4.459594760148637E-008	0.000000000000000E+000	6.605863541395682E+005	0.000000000000000E+000	0.000000000000000E+000	6.306404732943822E-005	6.306404732943822E-005	0.0000000E+000	0.000000000000000E+000	1.0028016E-004
2	1	0	1	0	0	0	2.996185124309995E+003	7.0701301E-001	7.0681238E-001	1.414920821785925E-001	2.4117978E-004	2.4117978E-004	12	6.699438219786518E-005	0	4.737395695089223E-008	0.000000000000000E+000	8.421072206685744E+005	0.000000000000000E+000	0.000000000000000E+000	6.699438219786518E-005	6.699438219786518E-005	0.0000000E+000	0.000000000000000E+000	1.0000836E-004
2	1	0	1	0	0	0	2.996285124307469E+003	7.0701301E-001	7.0711792E-001	1.409881800115103E-001	2.5527860E-004	2.5527860E-004	12	7.091072297448086E-005	0	5.014327167588336E-008	0.000000000000000E+000	4.312621345093646E+005	0.000000000000000E+000	0.000000000000000E+000	7.091072297448086E-005	7.091072297448086E-005	0.0000000E+000	0.000000000000000E+000	9.9695266E-005
2	1	0	1	0	0	0	2.996385124304943E+003	7.0701301E-001	7.0753795E-001	1.403016578555105E-001	2.6930877E-004	2.6930877E-004	12	7.480799265775002E-005	0	5.290073787461569E-008	0.000000000000000E+000	2.661238935589439E+005	0.000000000000000E+000	0.000000000000000E+000	7.480799265775002E-005	7.480799265775002E-005	0.0000000E+000	0.000000000000000E+000	9.9268749E-005
2	1	0	1	0	0	0	2.996485124302417E+003	7.0701301E-001	7.0679331E-001	1.396718850731844E-001	2.8327596E-004	2.8327596E-004	12	7.868776770515574E-005	0	5.564293691566864E-008	0.000000000000000E+000	1.059661545429208E+006	0.000000000000000E+000	0.000000000000000E+000	7.868776770515574E-005	7.868776770515574E-005	0.0000000E+000	0.000000000000000E+000	9.8719152E-005
2	1	0	1	0	0	0	2.996585124299891E+003	7.0701301E-001	7.0744246E-001	1.392767232954499E-001	2.9720363E-004	2.9720363E-004	12	8.255656414096140E-005	0	5.837988779291075E-008	0.000000000000000E+000	3.242878194406055E+005	0.000000000000000E+000	0.000000000000000E+000	8.255656414096140E-005	8.255656414096140E-005	0.0000000E+000	0.000000000000000E+000	9.8530269E-005
2	1	0	1	0	0	0	2.996685124297364E+003	7.0701301E-001	7.0723248E-001	1.389477569162846E-001	3.1109841E-004	3.1109841E-004	12	8.641622520776259E-005	0	6.110956544292934E-008	0.000000000000000E+000	4.403412835885430E+005	0.000000000000000E+000	0.000000000000000E+000	8.641622520776259E-005	8.641622520776259E-005	0.0000000E+000	0.000000000000000E+000	9.8268363E-005
2	1	0	1	0	0	0	2.996785124294838E+003	7.0701301E-001	7.0696515E-001	1.385770896077156E-001	3.2495611E-004	3.2495611E-004	12	9.026558675234103E-005	0	6.383092989872589E-008	0.000000000000000E+000	7.399374167642168E+005	0.000000000000000E+000	0.000000000000000E+000	9.026558675234103E-005	9.026558675234103E-005	0.0000000E+000	0.000000000000000E+000	9.7969176E-005
2	1	0	1	0	0	0	2.996885124292312E+003	7.0701301E-001	7.0685059E-001	1.378698409497741E-001	3.3874309E-004	3.3874309E-004	12	9.409530321136117E-005	0	6.653796723088952E-008	0.000000000000000E+000	1.043548662435733E+006	0.000000000000000E+000	0.000000000000000E+000	9.409530321136117E-005	9.409530321136117E-005	0.0000000E+000	0.000000000000000E+000	9.7453376E-005
2	1	0	1	0	0	0	2.996985124289786E+003	7.0701301E-001	7.0694607E-001	1.374447365403175E-001	3.5248758E-004	3.5248758E-004	12	9.791321645025164E-005	0	6.923702600967095E-008	0.000000000000000E+000	8.390692755258584E+005	0.000000000000000E+000	0.000000000000000E+000	9.791321645025164E-005	9.791321645025164E-005	0.0000000E+000	0.000000000000000E+000	9.7166019E-005
2	1	0	1	0	0	0	2.997085124287260E+003	7.0701301E-001	7.0690787E-001	1.371921434700488E-001	3.6620678E-004	3.6620678E-004	12	1.017241043478457E-004	0	7.193097265001459E-008	0.000000000000000E+000	9.589402490684018E+005	0.000000000000000E+000	0.000000000000000E+000	1.017241043478457E-004	1.017241043478457E-004	0.0000000E+000	0.000000000000000E+000	9.6982207E-005
2	1	0	1	0	0	0	2.997185124284733E+003	7.0701301E-001	7.0742339E-001	1.369014670699834E-001	3.7989693E-004	3.7989693E-004	12	1.055269240168855E-004	0	7.462117622788272E-008	0.000000000000000E+000	4.233270983640243E+005	0.000000000000000E+000	0.000000000000000E+000	1.055269240168855E-004	1.055269240168855E-004	0.0000000E+000	0.000000000000000E+000	9.6847303E-005
2	1	0	1	0	0	0	2.997285124282207E+003	7.0701301E-001	7.0725155E-001	1.362398645728820E-001	3.9352092E-004	3.9352092E-004	12	1.093113678507507E-004	0	7.729772999060596E-008	0.000000000000000E+000	5.423630614371970E+005	0.000000000000000E+000	0.000000000000000E+000	1.093113678507507E-004	1.093113678507507E-004	0.0000000E+000	0.000000000000000E+000	9.6355856E-005
2	1	0	1	0	0	0	2.997385124279681E+003	7.0701301E-001	7.0671695E-001	1.358112892657517E-001	4.0710205E-004	4.0710205E-004	12	1.130839033673207E-004	0	7.996384480240447E-008	0.000000000000000E+000	2.131722553838952E+006	0.000000000000000E+000	0.000000000000000E+000	1.130839033673207E-004	1.130839033673207E-004	0.0000000E+000	0.000000000000000E+000	9.5980140E-005
2	1	0	1	0	0	0	2.997485124277155E+003	7.0701301E-001	7.0715606E-001	1.356406465321776E-001	4.2066610E-004	4.2066610E-004	12	1.168516933426468E-004	0	8.262826032427449E-008	0.000000000000000E+000	6.676384407370400E+005	0.000000000000000E+000	0.000000000000000E+000	1.168516933426468E-004	1.168516933426468E-004	0.0000000E+000	0.000000000000000E+000	9.5919102E-005
2	1	0	1	0	0	0	2.997585124274628E+003	7.0701301E-001	7.0780522E-001	1.354072567671538E-001	4.3420683E-004	4.3420683E-004	12	1.206130077156963E-004	0	8.529053825770975E-008	0.000000000000000E+000	3.394269750387312E+005	0.000000000000000E+000	0.000000000000000E+000	1.206130077156963E-004	1.206130077156963E-004	0.0000000E+000	0.000000000000000E+000	9.5841962E-005
2	1	0	1	0	0	0	2.997685124272102E+003	7.0701301E-001	7.0692694E-001	1.350036231130358E-001	4.4770719E-004	4.4770719E-004	12	1.243631090296225E-004	0	8.794158591127248E-008	0.000000000000000E+000	1.116586929305411E+006	0.000000000000000E+000	0.000000000000000E+000	1.243631090296225E-004	1.243631090296225E-004	0.0000000E+000	0.000000000000000E+000	9.5437696E-005
2	1	0	1	0	0	0	2.997785124269576E+003	7.0701301E-001	7.0719427E-001	1.344792085140942E-001	4.6115511E-004	4.6115511E-004	12	1.280986422595257E-004	0	9.058333360201136E-008	0.000000000000000E+000	6.900552020853772E+005	0.000000000000000E+000	0.000000000000000E+000	1.280986422595257E-004	1.280986422595257E-004	0.0000000E+000	0.000000000000000E+000	9.5102929E-005
2	1	0	1	0	0	0	2.997885124267050E+003	7.0701301E-001	7.0761430E-001	1.342227853238578E-001	4.7457739E-004	4.7457739E-004	12	1.318270531353644E-004	0	9.322161046385541E-008	0.000000000000000E+000	4.360637166517198E+005	0.000000000000000E+000	0.000000000000000E+000	1.318270531353644E-004	1.318270531353644E-004	0.0000000E+000	0.000000000000000E+000	9.4977964E-005
2	1	0	1	0	0	0	2.997985124264524E+003	7.0701301E-001	7.0698422E-001	1.341451630294319E-001	4.8799190E-004	4.8799190E-004	12	1.355533054771109E-004	0	9.585601207641951E-008	0.000000000000000E+000	1.064925274169160E+006	0.000000000000000E+000	0.000000000000000E+000	1.355533054771109E-004	1.355533054771109E-004	0.0000000E+000	0.000000000000000E+000	9.4838513E-005
2	1	0	1	0	0	0	2.998085124261997E+003	7.0701301E-001	7.0748067E-001	1.337152040302754E-001	5.0136342E-004	5.0136342E-004	12	1.392676171639727E-004	0	9.848381579359531E-008	0.000000000000000E+000	5.251596692186428E+005	0.000000000000000E+000	0.000000000000000E+000	1.392676171639727E-004	1.392676171639727E-004	0.0000000E+000	0.000000000000000E+000	9.4600924E-005
2	1	0	1	0	0	0	2.998185124259471E+003	7.0701301E-001	7.0786250E-001	1.332737752050157E-001	5.1469082E-004	5.1469082E-004	12	1.429696729044534E-004	0	1.011043622117752E-007	0.000000000000000E+000	3.850991884030906E+005	0.000000000000000E+000	0.000000000000000E+000	1.429696729044534E-004	1.429696729044534E-004	0.0000000E+000	0.000000000000000E+000	9.4339506E-005
2	1	0	1	0	0	0	2.998285124256945E+003	7.0701301E-001	7.0706064E-001	1.329949679970741E-001	5.2799028E-004	5.2799028E-004	12	1.466639676234788E-004	0	1.037164525820185E-007	0.000000000000000E+000	9.875370157469343E+005	0.000000000000000E+000	0.000000000000000E+000	1.466639676234788E-004	1.466639676234788E-004	0.0000000E+000	0.000000000000000E+000	9.4035509E-005
2	1	0	1	0	0	0	2.998385124254419E+003	7.0701301E-001	7.0717520E-001	1.329368335306643E-001	5.4128398E-004	5.4128398E-004	12	1.503566616318292E-004	0	1.063278341882508E-007	0.000000000000000E+000	8.337530555683071E+005	0.000000000000000E+000	0.000000000000000E+000	1.503566616318292E-004	1.503566616318292E-004	0.0000000E+000	0.000000000000000E+000	9.4009629E-005
2	1	0	1	0	0	0	2.998485124251893E+003	7.0701301E-001	7.0727062E-001	1.327256041318172E-001	5.5455655E-004	5.5455655E-004	12	1.540434863677041E-004	0	1.089354170133324E-007	0.000000000000000E+000	7.447302520661571E+005	0.000000000000000E+000	0.000000000000000E+000	1.540434863677041E-004	1.540434863677041E-004	0.0000000E+000	0.000000000000000E+000	9.3872921E-005
2	1	0	1	0	0	0	2.998585124249366E+003	7.0701301E-001	7.0740426E-001	1.322534835934639E-001	5.6778191E-004	5.6778191E-004	12	1.577171982110789E-004	0	1.115342164061646E-007	0.000000000000000E+000	6.464743674711571E+005	0.000000000000000E+000	0.000000000000000E+000	1.577171982110789E-004	1.577171982110789E-004	0.0000000E+000	0.000000000000000E+000	9.3556679E-005
2	1	0	1	0	0	0	2.998685124246840E+003	7.0701301E-001	7.0749974E-001	1.319298940002920E-001	5.8097491E-004	5.8097491E-004	12	1.613819202046014E-004	0	1.141270062729450E-007	0.000000000000000E+000	5.966298342145131E+005	0.000000000000000E+000	0.000000000000000E+000	1.613819202046014E-004	1.613819202046014E-004	0.0000000E+000	0.000000000000000E+000	9.3340364E-005
2	1	0	1	0	0	0	2.998785124244314E+003	7.0701301E-001	7.0694607E-001	1.317138090580702E-001	5.9414626E-004	5.9414626E-004	12	1.650406274064961E-004	0	1.167135149687620E-007	0.000000000000000E+000	1.414318972359180E+006	0.000000000000000E+000	0.000000000000000E+000	1.650406274064961E-004	1.650406274064961E-004	0.0000000E+000	0.000000000000000E+000	9.3114562E-005
2	1	0	1	0	0	0	2.998885124241788E+003	7.0701301E-001	7.0677423E-001	1.316046432405711E-001	6.0730672E-004	6.0730672E-004	12	1.686963110437824E-004	0	1.192972579740725E-007	0.000000000000000E+000	2.446318371098439E+006	0.000000000000000E+000	0.000000000000000E+000	1.686963110437824E-004	1.686963110437824E-004	0.0000000E+000	0.000000000000000E+000	9.3014773E-005
2	1	0	1	0	0	0	2.998985124239262E+003	7.0701301E-001	7.0723248E-001	1.314518077522520E-001	6.2045193E-004	6.2045193E-004	12	1.723477584568577E-004	0	1.218796801663792E-007	0.000000000000000E+000	8.782127777514132E+005	0.000000000000000E+000	0.000000000000000E+000	1.723477584568577E-004	1.723477584568577E-004	0.0000000E+000	0.000000000000000E+000	9.2966984E-005
2	1	0	1	0	0	0	2.999085124236735E+003	7.0701301E-001	7.0746154E-001	1.309912013709540E-001	6.3355104E-004	6.3355104E-004	12	1.759864001845320E-004	0	1.244538792317410E-007	0.000000000000000E+000	6.771930846234710E+005	0.000000000000000E+000	0.000000000000000E+000	1.759864001845320E-004	1.759864001845320E-004	0.0000000E+000	0.000000000000000E+000	9.2671238E-005
2	1	0	1	0	0	0	2.999185124234209E+003	7.0701301E-001	7.0759523E-001	1.307390467524527E-001	6.4662495E-004	6.4662495E-004	12	1.796180408241020E-004	0	1.270236108222839E-007	0.000000000000000E+000	6.047475559535092E+005	0.000000000000000E+000	0.000000000000000E+000	1.796180408241020E-004	1.796180408241020E-004	0.0000000E+000	0.000000000000000E+000	9.2510323E-005
2	1	0	1	0	0	0	2.999285124231683E+003	7.0701301E-001	7.0744246E-001	1.305840262621638E-001	6.5968337E-004	6.5968337E-004	12	1.832453805642823E-004	0	1.295897449801991E-007	0.000000000000000E+000	7.198003635942377E+005	0.000000000000000E+000	0.000000000000000E+000	1.832453805642823E-004	1.832453805642823E-004	0.0000000E+000	0.000000000000000E+000	9.2380687E-005
2	1	0	1	0	0	0	2.999385124229157E+003	7.0701301E-001	7.0673603E-001	1.305064171701669E-001	6.7273399E-004	6.7273399E-004	12	1.868705536859731E-004	0	1.321517854337400E-007	0.000000000000000E+000	3.202781928383939E+006	0.000000000000000E+000	0.000000000000000E+000	1.868705536859731E-004	1.868705536859731E-004	0.0000000E+000	0.000000000000000E+000	9.2233589E-005
2	1	0	1	0	0	0	2.999485124226630E+003	7.0701301E-001	7.0753795E-001	1.301405017673969E-001	6.8574806E-004	6.8574806E-004	12	1.904855728045934E-004	0	1.347095486468325E-007	0.000000000000000E+000	6.776383177862527E+005	0.000000000000000E+000	0.000000000000000E+000	1.904855728045934E-004	1.904855728045934E-004	0.0000000E+000	0.000000000000000E+000	9.2079346E-005
2	1	0	1	0	0	0	2.999585124224104E+003	7.0701301E-001	7.0713699E-001	1.298013410270209E-001	6.9872820E-004	6.9872820E-004	12	1.940911655159046E-004	0	1.372591966189709E-007	0.000000000000000E+000	1.143567834083260E+006	0.000000000000000E+000	0.000000000000000E+000	1.940911655159046E-004	1.940911655159046E-004	0.0000000E+000	0.000000000000000E+000	9.1787326E-005
2	1	0	1	0	0	0	2.999685124221578E+003	7.0701301E-001	7.0673603E-001	1.295431209206575E-001	7.1168249E-004	7.1168249E-004	12	1.976895792823699E-004	0	1.398023252720827E-007	0.000000000000000E+000	3.388209642806470E+006	0.000000000000000E+000	0.000000000000000E+000	1.976895792823699E-004	1.976895792823699E-004	0.0000000E+000	0.000000000000000E+000	9.1552793E-005
2	1	0	1	0	0	0	2.999785124219052E+003	7.0701301E-001	7.0774794E-001	1.295750749707222E-001	7.2463998E-004	7.2463998E-004	12	2.012888823325435E-004	0	1.423497245777771E-007	0.000000000000000E+000	5.930169945978245E+005	0.000000000000000E+000	0.000000000000000E+000	2.012888823325435E-004	2.012888823325435E-004	0.0000000E+000	0.000000000000000E+000	9.1706490E-005
2	1	0	1	0	0	0	2.999885124216526E+003	7.0701301E-001	7.0665967E-001	1.294775377660993E-001	7.3758775E-004	7.3758775E-004	12	2.048854851940026E-004	0	1.448912987856811E-007	0.000000000000000E+000	5.517016917214668E+006	0.000000000000000E+000	0.000000000000000E+000	2.048854851940026E-004	2.048854851940026E-004	0.0000000E+000	0.000000000000000E+000	9.1496557E-005
2	1	0	1	0	0	0	2.999985124213999E+003	7.0701301E-001	7.0732790E-001	1.292036346793175E-001	7.5050810E-004	7.5050810E-004	12	2.084744725531588E-004	0	1.474298896858754E-007	0.000000000000000E+000	9.358879532806228E+005	0.000000000000000E+000	0.000000000000000E+000	2.084744725531588E-004	2.084744725531588E-004	0.0000000E+000	0.000000000000000E+000	9.1389338E-005
2	1	0	1	0	0	0	3.000085124211473E+003	7.0701301E-001	7.0707971E-001	1.289277209192513E-001	7.6340087E-004	7.6340087E-004	12	2.120557959036281E-004	0	1.499621707568424E-007	0.000000000000000E+000	1.378658903222551E+006	0.000000000000000E+000	0.000000000000000E+000	2.120557959036281E-004	2.120557959036281E-004	0.0000000E+000	0.000000000000000E+000	9.1162176E-005
2	1	0	1	0	0	0	3.000185124208947E+003	7.0701301E-001	7.0751882E-001	1.287201570123426E-001	7.7627291E-004	7.7627291E-004	12	2.156313631631848E-004	0	1.524919518708318E-007	0.000000000000000E+000	7.818753822529567E+005	0.000000000000000E+000	0.000000000000000E+000	2.156313631631848E-004	2.156313631631848E-004	0.0000000E+000	0.000000000000000E+000	9.1071932E-005
2	1	0	1	0	0	0	3.000285124206421E+003	7.0701301E-001	7.0753795E-001	1.287533848285674E-001	7.8914821E-004	7.8914821E-004	12	2.192078358752446E-004	0	1.550224420384819E-007	0.000000000000000E+000	7.798156414735246E+005	0.000000000000000E+000	0.000000000000000E+000	2.192078358752446E-004	2.192078358752446E-004	0.0000000E+000	0.000000000000000E+000	9.1097907E-005
2	1	0	1	0	0	0	3.000385124203895E+003	7.0701301E-001	7.0725155E-001	1.285314480364326E-001	8.0200139E-004	8.0200139E-004	12	2.227781644453191E-004	0	1.575475624492745E-007	0.000000000000000E+000	1.105343841775856E+006	0.000000000000000E+000	0.000000000000000E+000	2.227781644453191E-004	2.227781644453191E-004	0.0000000E+000	0.000000000000000E+000	9.0904068E-005
2	1	0	1	0	0	0	3.000485124201368E+003	7.0701301E-001	7.0721334E-001	1.282165181636808E-001	8.1482303E-004	8.1482303E-004	12	2.263397295286672E-004	0	1.600663487952956E-007	0.000000000000000E+000	1.185437210723422E+006	0.000000000000000E+000	0.000000000000000E+000	2.263397295286672E-004	2.263397295286672E-004	0.0000000E+000	0.000000000000000E+000	9.0676433E-005
2	1	0	1	0	0	0	3.000585124198842E+003	7.0701301E-001	7.0685059E-001	1.279424312710762E-001	8.2761724E-004	8.2761724E-004	12	2.298936791097125E-004	0	1.625784601475230E-007	0.000000000000000E+000	2.549598472502755E+006	0.000000000000000E+000	0.000000000000000E+000	2.298936791097125E-004	2.298936791097125E-004	0.0000000E+000	0.000000000000000E+000	9.0436180E-005
2	1	0	1	0	0	0	3.000685124196316E+003	7.0701301E-001	7.0715606E-001	1.279142780303953E-001	8.4040873E-004	8.4040873E-004	12	2.334468687574069E-004	0	1.650911197467740E-007	0.000000000000000E+000	1.333811252483209E+006	0.000000000000000E+000	0.000000000000000E+000	2.334468687574069E-004	2.334468687574069E-004	0.0000000E+000	0.000000000000000E+000	9.0455360E-005
2	1	0	1	0	0	0	3.000785124193790E+003	7.0701301E-001	7.0786250E-001	1.277951293289661E-001	8.5318822E-004	8.5318822E-004	12	2.369967276333935E-004	0	1.676039317125126E-007	0.000000000000000E+000	6.383678832839050E+005	0.000000000000000E+000	0.000000000000000E+000	2.369967276333935E-004	2.369967276333935E-004	0.0000000E+000	0.000000000000000E+000	9.0461377E-005
2	1	0	1	0	0	0	3.000885124191263E+003	7.0701301E-001	7.0702243E-001	1.275415695011612E-001	8.6594239E-004	8.6594239E-004	12	2.405395530836864E-004	0	1.701087887661748E-007	0.000000000000000E+000	1.744279329939068E+006	0.000000000000000E+000	0.000000000000000E+000	2.405395530836864E-004	2.405395530836864E-004	0.0000000E+000	0.000000000000000E+000	9.0174748E-005
2	1	0	1	0	0	0	3.000985124188737E+003	7.0701301E-001	7.0746154E-001	1.272022697478530E-001	8.7866263E-004	8.7866263E-004	12	2.440729521266702E-004	0	1.726085326801800E-007	0.000000000000000E+000	9.391891370611939E+005	0.000000000000000E+000	0.000000000000000E+000	2.440729521266702E-004	2.440729521266702E-004	0.0000000E+000	0.000000000000000E+000	8.9990710E-005
2	1	0	1	0	0	0	3.001085124186211E+003	7.0701301E-001	7.0746154E-001	1.271459037214517E-001	8.9137722E-004	8.9137722E-004	12	2.476047827965684E-004	0	1.751071670305530E-007	0.000000000000000E+000	9.527795696355760E+005	0.000000000000000E+000	0.000000000000000E+000	2.476047827965684E-004	2.476047827965684E-004	0.0000000E+000	0.000000000000000E+000	8.9950838E-005
2	1	0	1	0	0	0	3.001185124183685E+003	7.0701301E-001	7.0656419E-001	1.271538458317518E-001	9.0409257E-004	9.0409257E-004	12	2.511368236607976E-004	0	1.776027806157825E-007	0.000000000000000E+000	2.366327028081124E+007	0.000000000000000E+000	0.000000000000000E+000	2.511368236607976E-004	2.511368236607976E-004	0.0000000E+000	0.000000000000000E+000	8.9842353E-005
2	1	0	1	0	0	0	3.001285124181159E+003	7.0701301E-001	7.0704150E-001	1.270015712678432E-001	9.1679272E-004	9.1679272E-004	12	2.546646444696105E-004	0	1.800970963392286E-007	0.000000000000000E+000	1.778382413248642E+006	0.000000000000000E+000	0.000000000000000E+000	2.546646444696105E-004	2.546646444696105E-004	0.0000000E+000	0.000000000000000E+000	8.9795380E-005
2	1	0	1	0	0	0	3.001385124178632E+003	7.0701301E-001	7.0702243E-001	1.266576362699270E-001	9.2945847E-004	9.2945847E-004	12	2.581829095207569E-004	0	1.825845886398410E-007	0.000000000000000E+000	1.872220625037519E+006	0.000000000000000E+000	0.000000000000000E+000	2.581829095207569E-004	2.581829095207569E-004	0.0000000E+000	0.000000000000000E+000	8.9549787E-005
2	1	0	1	0	0	0	3.001485124176106E+003	7.0701301E-001	7.0723248E-001	1.264997892826796E-001	9.4210845E-004	9.4210845E-004	12	2.616967928285400E-004	0	1.850697210294522E-007	0.000000000000000E+000	1.333498441850165E+006	0.000000000000000E+000	0.000000000000000E+000	2.616967928285400E-004	2.616967928285400E-004	0.0000000E+000	0.000000000000000E+000	8.9464760E-005
2	1	0	1	0	0	0	3.001585124173580E+003	7.0701301E-001	7.0780522E-001	1.264800576418638E-001	9.5475646E-004	9.5475646E-004	12	2.652101263973034E-004	0	1.875564768560684E-007	0.000000000000000E+000	7.463496073729149E+005	0.000000000000000E+000	0.000000000000000E+000	2.652101263973034E-004	2.652101263973034E-004	0.0000000E+000	0.000000000000000E+000	8.9523244E-005
2	1	0	1	0	0	0	3.001685124171054E+003	7.0701301E-001	7.0738518E-001	1.263573916256428E-001	9.6739223E-004	9.6739223E-004	12	2.687200645191802E-004	0	1.900393550745571E-007	0.000000000000000E+000	1.125920807318765E+006	0.000000000000000E+000	0.000000000000000E+000	2.687200645191802E-004	2.687200645191802E-004	0.0000000E+000	0.000000000000000E+000	8.9383349E-005
2	1	0	1	0	0	0	3.001785124168528E+003	7.0701301E-001	7.0660239E-001	1.260996761173010E-001	9.8000222E-004	9.8000222E-004	12	2.722228398650057E-004	0	1.925144245215961E-007	0.000000000000000E+000	1.282504600965289E+007	0.000000000000000E+000	0.000000000000000E+000	2.722228398650057E-004	2.722228398650057E-004	0.0000000E+000	0.000000000000000E+000	8.9102330E-005
2	1	0	1	0	0	0	3.001885124166001E+003	7.0701301E-001	7.0719427E-001	1.258435713499785E-001	9.9258649E-004	9.9258649E-004	12	2.757184686035746E-004	0	1.949865131310272E-007	0.000000000000000E+000	1.485269166127809E+006	0.000000000000000E+000	0.000000000000000E+000	2.757184686035746E-004	2.757184686035746E-004	0.0000000E+000	0.000000000000000E+000	8.8995854E-005
2	1	0	1	0	0	0	3.001985124163475E+003	7.0701301E-001	7.0679331E-001	1.257103680819273E-001	1.0051576E-003	1.0051576E-003	12	2.792104431945417E-004	0	1.974546174045299E-007	0.000000000000000E+000	3.760032573857302E+006	0.000000000000000E+000	0.000000000000000E+000	2.792104431945417E-004	2.792104431945417E-004	0.0000000E+000	0.000000000000000E+000	8.8851244E-005
2	1	0	1	0	0	0	3.002085124160949E+003	7.0701301E-001	7.0765251E-001	1.258134989887476E-001	1.0177389E-003	1.0177389E-003	12	2.827052634933756E-004	0	1.999277357582465E-007	0.000000000000000E+000	9.034299561838624E+005	0.000000000000000E+000	0.000000000000000E+000	2.827052634933756E-004	2.827052634933756E-004	0.0000000E+000	0.000000000000000E+000	8.9032241E-005
2	1	0	1	0	0	0	3.002185124158423E+003	7.0701301E-001	7.0736611E-001	1.257761979103085E-001	1.0303166E-003	1.0303166E-003	12	2.861990489893489E-004	0	2.023991212098446E-007	0.000000000000000E+000	1.226381252217098E+006	0.000000000000000E+000	0.000000000000000E+000	2.861990489893489E-004	2.861990489893489E-004	0.0000000E+000	0.000000000000000E+000	8.8969820E-005
2	1	0	1	0	0	0	3.002285124155896E+003	7.0701301E-001	7.0793891E-001	1.254040146917104E-001	1.0428570E-003	1.0428570E-003	12	2.896824864567154E-004	0	2.048651821319102E-007	0.000000000000000E+000	7.380821062275891E+005	0.000000000000000E+000	0.000000000000000E+000	2.896824864567154E-004	2.896824864567154E-004	0.0000000E+000	0.000000000000000E+000	8.8778383E-005
2	1	0	1	0	0	0	3.002385124153370E+003	7.0701301E-001	7.0646870E-001	1.252091350555418E-001	1.0553779E-003	1.0553779E-003	12	2.931605235466526E-004	0	2.073223064781292E-007	0.000000000000000E+000	1.842487277250260E+007	0.000000000000000E+000	0.000000000000000E+000	2.931605235466526E-004	2.931605235466526E-004	0.0000000E+000	0.000000000000000E+000	8.8456334E-005
2	1	0	1	0	0	0	3.002485124150844E+003	7.0701301E-001	7.0707971E-001	1.252403528839348E-001	1.0679020E-003	1.0679020E-003	12	2.966394337515036E-004	0	2.097821732919380E-007	0.000000000000000E+000	1.928570707750269E+006	0.000000000000000E+000	0.000000000000000E+000	2.966394337515036E-004	2.966394337515036E-004	0.0000000E+000	0.000000000000000E+000	8.8554909E-005
2	1	0	1	0	0	0	3.002585124148318E+003	7.0701301E-001	7.0707971E-001	1.252319074124098E-001	1.0804251E-003	1.0804251E-003	12	3.001180852556394E-004	0	2.122418571837205E-007	0.000000000000000E+000	1.951186802004844E+006	0.000000000000000E+000	0.000000000000000E+000	3.001180852556394E-004	3.001180852556394E-004	0.0000000E+000	0.000000000000000E+000	8.8548943E-005
2	1	0	1	0	0	0	3.002685124145792E+003	7.0701301E-001	7.0709878E-001	1.250410403907298E-001	1.0929292E-003	1.0929292E-003	12	3.035914333951142E-004	0	2.146978574228222E-007	0.000000000000000E+000	1.908044598725286E+006	0.000000000000000E+000	0.000000000000000E+000	3.035914333951142E-004	3.035914333951142E-004	0.0000000E+000	0.000000000000000E+000	8.8416367E-005
2	1	0	1	0	0	0	3.002785124143265E+003	7.0701301E-001	7.0677423E-001	1.247483827024698E-001	1.1054040E-003	1.1054040E-003	12	3.070566647996505E-004	0	2.171469936970704E-007	0.000000000000000E+000	4.452725465186074E+006	0.000000000000000E+000	0.000000000000000E+000	3.070566647996505E-004	3.070566647996505E-004	0.0000000E+000	0.000000000000000E+000	8.8168941E-005
2	1	0	1	0	0	0	3.002885124140739E+003	7.0701301E-001	7.0751882E-001	1.246268078833818E-001	1.1178667E-003	1.1178667E-003	12	3.105185330948896E-004	0	2.195963306544460E-007	0.000000000000000E+000	1.125934526400312E+006	0.000000000000000E+000	0.000000000000000E+000	3.105185330948896E-004	3.105185330948896E-004	0.0000000E+000	0.000000000000000E+000	8.8175810E-005
2	1	0	1	0	0	0	3.002985124138213E+003	7.0701301E-001	7.0797706E-001	1.246341384202241E-001	1.1303301E-003	1.1303301E-003	12	3.139805954156651E-004	0	2.220473913457396E-007	0.000000000000000E+000	7.789604834154858E+005	0.000000000000000E+000	0.000000000000000E+000	3.139805954156651E-004	3.139805954156651E-004	0.0000000E+000	0.000000000000000E+000	8.8238114E-005
2	1	0	1	0	0	0	3.003085124135687E+003	7.0701301E-001	7.0765251E-001	1.246188534796238E-001	1.1427921E-003	1.1427921E-003	12	3.174422373477783E-004	0	2.244970309449947E-007	0.000000000000000E+000	1.014437520667989E+006	0.000000000000000E+000	0.000000000000000E+000	3.174422373477783E-004	3.174422373477783E-004	0.0000000E+000	0.000000000000000E+000	8.8186847E-005
2	1	0	1	0	0	0	3.003185124133161E+003	7.0701301E-001	7.0639235E-001	1.244437708854675E-001	1.1552364E-003	1.1552364E-003	12	3.208989963038928E-004	0	2.269388590198268E-007	0.000000000000000E+000	8.644803920885371E+006	0.000000000000000E+000	0.000000000000000E+000	3.208989963038928E-004	3.208989963038928E-004	0.0000000E+000	0.000000000000000E+000	8.7906126E-005
2	1	0	1	0	0	0	3.003285124130634E+003	7.0701301E-001	7.0723248E-001	1.242471317797897E-001	1.1676612E-003	1.1676612E-003	12	3.243503225449887E-004	0	2.293797490203185E-007	0.000000000000000E+000	1.652754873502489E+006	0.000000000000000E+000	0.000000000000000E+000	3.243503225449887E-004	3.243503225449887E-004	0.0000000E+000	0.000000000000000E+000	8.7871609E-005
2	1	0	1	0	0	0	3.003385124128108E+003	7.0701301E-001	7.0719427E-001	1.240551167726516E-001	1.1800666E-003	1.1800666E-003	12	3.277962807462447E-004	0	2.318167109104385E-007	0.000000000000000E+000	1.765807386895737E+006	0.000000000000000E+000	0.000000000000000E+000	3.277962807462447E-004	3.277962807462447E-004	0.0000000E+000	0.000000000000000E+000	8.7731067E-005
2	1	0	1	0	0	0	3.003485124125582E+003	7.0701301E-001	7.0686966E-001	1.240762652903795E-001	1.1924743E-003	1.1924743E-003	12	3.312428533616993E-004	0	2.342529885295216E-007	0.000000000000000E+000	3.469718771678807E+006	0.000000000000000E+000	0.000000000000000E+000	3.312428533616993E-004	3.312428533616993E-004	0.0000000E+000	0.000000000000000E+000	8.7705746E-005
2	1	0	1	0	0	0	3.003585124123056E+003	7.0701301E-001	7.0732790E-001	1.240750868916511E-001	1.2048817E-003	1.2048817E-003	12	3.346893613019751E-004	0	2.366907997612359E-007	0.000000000000000E+000	1.502494466097443E+006	0.000000000000000E+000	0.000000000000000E+000	3.346893613019751E-004	3.346893613019751E-004	0.0000000E+000	0.000000000000000E+000	8.7761771E-005
2	1	0	1	0	0	0	3.003685124120530E+003	7.0701301E-001	7.0757610E-001	1.238129793256519E-001	1.2172631E-003	1.2172631E-003	12	3.381286256222262E-004	0	2.391243409822704E-007	0.000000000000000E+000	1.159171594746850E+006	0.000000000000000E+000	0.000000000000000E+000	3.381286256222262E-004	3.381286256222262E-004	0.0000000E+000	0.000000000000000E+000	8.7607106E-005
2	1	0	1	0	0	0	3.003785124118003E+003	7.0701301E-001	7.0740426E-001	1.236108694821596E-001	1.2296241E-003	1.2296241E-003	12	3.415622632019222E-004	0	2.415533108192523E-007	0.000000000000000E+000	1.400045464667458E+006	0.000000000000000E+000	0.000000000000000E+000	3.415622632019222E-004	3.415622632019222E-004	0.0000000E+000	0.000000000000000E+000	8.7442852E-005
2	1	0	1	0	0	0	3.003885124115477E+003	7.0701301E-001	7.0738518E-001	1.234825827628372E-001	1.2419724E-003	1.2419724E-003	12	3.449923436467846E-004	0	2.439796989003217E-007	0.000000000000000E+000	1.445497040842872E+006	0.000000000000000E+000	0.000000000000000E+000	3.449923436467846E-004	3.449923436467846E-004	0.0000000E+000	0.000000000000000E+000	8.7349748E-005
2	1	0	1	0	0	0	3.003985124112951E+003	7.0701301E-001	7.0637327E-001	1.235488249808547E-001	1.2543272E-003	1.2543272E-003	12	3.484242349966533E-004	0	2.464038952302606E-007	0.000000000000000E+000	8.213941897199454E+006	0.000000000000000E+000	0.000000000000000E+000	3.484242349966533E-004	3.484242349966533E-004	0.0000000E+000	0.000000000000000E+000	8.7271590E-005
2	1	0	1	0	0	0	3.004085124110425E+003	7.0701301E-001	7.0727062E-001	1.234982234090566E-001	1.2666770E-003	1.2666770E-003	12	3.518547358301778E-004	0	2.488301876894284E-007	0.000000000000000E+000	1.701057748589210E+006	0.000000000000000E+000	0.000000000000000E+000	3.518547358301778E-004	3.518547358301778E-004	0.0000000E+000	0.000000000000000E+000	8.7346663E-005
2	1	0	1	0	0	0	3.004185124107898E+003	7.0701301E-001	7.0734704E-001	1.232163386344910E-001	1.2789987E-003	1.2789987E-003	12	3.552774109670685E-004	0	2.512512068006727E-007	0.000000000000000E+000	1.557752240245009E+006	0.000000000000000E+000	0.000000000000000E+000	3.552774109670685E-004	3.552774109670685E-004	0.0000000E+000	0.000000000000000E+000	8.7156710E-005
2	1	0	1	0	0	0	3.004285124105372E+003	7.0701301E-001	7.0688879E-001	1.229432263076302E-001	1.2912931E-003	1.2912931E-003	12	3.586925191080405E-004	0	2.536653084788941E-007	0.000000000000000E+000	3.559110027004272E+006	0.000000000000000E+000	0.000000000000000E+000	3.586925191080405E-004	3.586925191080405E-004	0.0000000E+000	0.000000000000000E+000	8.6907188E-005
2	1	0	1	0	0	0	3.004385124102846E+003	7.0701301E-001	7.0757610E-001	1.230597105026243E-001	1.3035990E-003	1.3035990E-003	12	3.621108286703627E-004	0	2.560840226141194E-007	0.000000000000000E+000	1.241387315174821E+006	0.000000000000000E+000	0.000000000000000E+000	3.621108286703627E-004	3.621108286703627E-004	0.0000000E+000	0.000000000000000E+000	8.7074106E-005
2	1	0	1	0	0	0	3.004485124100320E+003	7.0701301E-001	7.0727062E-001	1.231407823264599E-001	1.3159132E-003	1.3159132E-003	12	3.655314342015319E-004	0	2.585033164166330E-007	0.000000000000000E+000	1.767178369887137E+006	0.000000000000000E+000	0.000000000000000E+000	3.655314342015319E-004	3.655314342015319E-004	0.0000000E+000	0.000000000000000E+000	8.7093860E-005
2	1	0	1	0	0	0	3.004494124100092E+003	7.0701301E-001	7.0744246E-001	1.226946441663637E-001	1.3170174E-003	1.3170174E-003	12	3.658381562369565E-004	0	2.587203046086597E-007	0.000000000000000E+000	1.437037250625976E+006	0.000000000000000E+000	0.000000000000000E+000	3.658381562369565E-004	3.658381562369565E-004	0.0000000E+000	0.000000000000000E+000	8.6799402E-005