EC-Lab ASCII FILE
Nb header lines : 59                          

Cyclic Voltammetry

Run on channel : 5 (SN 39658)
User : 
CE vs. WE compliance from -10 V to 10 V
Electrode connection : standard
Potential control : Ewe
Ewe ctrl range : min = -2.50 V, max = 2.50 V
Safety Limits :
	Do not start on E overload
Acquisition started on : 02/10/2025 13:00:49.750
Loaded Setting File :  NONE
Saved on :
	File : 2025-02-10 exp 10 CV 2000mvs_C05.mpr
	Directory : C:\Users\thefo\OneDrive\Documents\EC-Lab\Data\CHEM 451\
	Host : 172.24.113.132
Device : VSP (SN 1910)
Address : USB
EC-Lab for windows v11.46 (software)
Internet server v11.40 (firmware)
Command interpretor v11.40 (firmware)
Electrode material : Au/Pd
Initial state : 
Electrolyte : NaCl (0.2M)
Comments : Fe(CN)63-/Fe(CN)64- 5.10-3 M
Current amplifier : VSPB-4A
Reference electrode : SCE Saturated Calomel Electrode (0.241 V)
Electrode surface area : 0.001 cm²
Characteristic mass : 0.001 g
Equivalent Weight : 0.000 g/eq.
Density : 0.000 g/cm3
Volume (V) : 0.001 cm³
Cycle Definition : Charge/Discharge alternance
Ei (V)              0.000               
vs.                 Eoc                 
dE/dt               2.000               
dE/dt unit          V/s                 
E1 (V)              -0.200              
vs.                 Ref                 
Step percent        50                  
N                   10                  
E range min (V)     -2.500              
E range max (V)     2.500               
I Range             Auto                
I Range min         Unset               
I Range max         Unset               
I Range init        Unset               
Bandwidth           4                   
E2 (V)              0.500               
vs.                 Ref                 
nc cycles           0                   
Reverse Scan        1                   
Ef (V)              0.000               
vs.                 Ref                 

mode	ox/red	error	control changes	counter inc.	time/s	control/V	Ewe/V	<I>/mA	cycle number	(Q-Qo)/C	I Range	P/W	
2	1	0	1	0	0.000000000000000E+000	3.0518317E-001	3.0544794E-001	5.292553396429867E-005	1.000000000000000E+000	0.0000000E+000	14	1.6165995E-008
2	1	0	1	0	1.099999972211663E-003	3.0298239E-001	3.0501390E-001	-1.651478876359948E-003	1.000000000000000E+000	-1.6989923E-009	14	-5.0372398E-007
2	0	0	1	0	1.809999954275554E-002	2.6897141E-001	2.7089986E-001	-3.659877446274973E-002	1.000000000000000E+000	-1.9251705E-007	14	-9.9146027E-006
2	0	0	1	0	3.509999911329942E-002	2.3496036E-001	2.3538052E-001	-6.735519425678316E-002	1.000000000000000E+000	-4.5453109E-007	13	-1.5854101E-005
2	0	0	1	0	3.709999906277517E-002	2.3095904E-001	2.3137237E-001	-7.183649897342548E-002	1.000000000000000E+000	-5.9417835E-007	13	-1.6620981E-005
2	0	0	1	0	3.909999901225092E-002	2.2695775E-001	2.2736527E-001	-7.658965646987803E-002	1.000000000000000E+000	-7.4307087E-007	13	-1.7413828E-005
2	0	0	1	0	4.109999896172667E-002	2.2295646E-001	2.2335078E-001	-8.144751738938005E-002	1.000000000000000E+000	-9.0158773E-007	13	-1.8191366E-005
2	0	0	1	0	4.309999891120242E-002	2.1895517E-001	2.1936807E-001	-8.636312310894323E-002	1.000000000000000E+000	-1.0698922E-006	13	-1.8945311E-005
2	0	0	1	0	4.509999886067817E-002	2.1495388E-001	2.1538749E-001	-9.141565983494104E-002	1.000000000000000E+000	-1.2481622E-006	13	-1.9689789E-005
2	0	0	1	0	4.709999881015392E-002	2.1095257E-001	2.1136981E-001	-9.651101946656138E-002	1.000000000000000E+000	-1.4365977E-006	13	-2.0399517E-005
2	0	0	1	0	4.909999875962967E-002	2.0695128E-001	2.0736270E-001	-1.016180555824477E-001	1.000000000000000E+000	-1.6352373E-006	13	-2.1071794E-005
2	0	0	1	0	5.109999870910542E-002	2.0294999E-001	2.0335458E-001	-1.066723269064420E-001	1.000000000000000E+000	-1.8440245E-006	13	-2.1692307E-005
2	0	0	1	0	6.809999827964930E-002	1.6899024E-001	1.6927291E-001	-1.360839814414074E-001	1.000000000000000E+000	-3.7587361E-006	13	-2.3035333E-005
2	0	0	1	0	8.509999785019318E-002	1.3502799E-001	1.3523935E-001	-1.615100458891705E-001	1.000000000000000E+000	-5.7329526E-006	12	-2.1842514E-005
2	0	0	1	0	8.709999779966893E-002	1.3102672E-001	1.3125984E-001	-1.620603442133870E-001	1.000000000000000E+000	-6.0566122E-006	12	-2.1272015E-005
2	0	0	1	0	8.909999774914468E-002	1.2702543E-001	1.2728353E-001	-1.624472025367947E-001	1.000000000000000E+000	-6.3811676E-006	12	-2.0676853E-005
2	0	0	1	0	9.109999769862043E-002	1.2302411E-001	1.2323612E-001	-1.625834588517638E-001	1.000000000000000E+000	-6.7062224E-006	12	-2.0036154E-005
2	0	0	1	0	9.309999764809618E-002	1.1902282E-001	1.1923857E-001	-1.625929943046582E-001	1.000000000000000E+000	-7.0313863E-006	12	-1.9387357E-005
2	0	0	1	0	9.509999759757193E-002	1.1502152E-001	1.1523891E-001	-1.622865981868624E-001	1.000000000000000E+000	-7.3562105E-006	12	-1.8701730E-005
2	0	0	1	0	9.709999754704768E-002	1.1102022E-001	1.1121909E-001	-1.620197434191749E-001	1.000000000000000E+000	-7.6804999E-006	12	-1.8019689E-005
2	0	0	1	0	9.909999749652343E-002	1.0701893E-001	1.0721730E-001	-1.615478027540833E-001	1.000000000000000E+000	-8.0040181E-006	12	-1.7320719E-005
2	0	0	1	0	1.010999974459992E-001	1.0301764E-001	1.0324629E-001	-1.609156112503509E-001	1.000000000000000E+000	-8.3264176E-006	12	-1.6613940E-005
2	0	0	1	0	1.030999973954749E-001	9.9016346E-002	9.9219032E-002	-1.602827113820240E-001	1.000000000000000E+000	-8.6475402E-006	12	-1.5903095E-005
2	0	0	1	0	1.050999973449507E-001	9.5015042E-002	9.5257565E-002	-1.595809762333780E-001	1.000000000000000E+000	-8.9673140E-006	12	-1.5201295E-005
2	0	0	1	0	1.070999972944264E-001	9.1013744E-002	9.1241993E-002	-1.587641747804200E-001	1.000000000000000E+000	-9.2855962E-006	12	-1.4485960E-005
2	0	0	1	0	1.090999972439022E-001	8.7012455E-002	8.7215804E-002	-1.580486645301176E-001	1.000000000000000E+000	-9.6023541E-006	12	-1.3784342E-005
2	0	0	1	0	1.110999971933779E-001	8.3011150E-002	8.3198100E-002	-1.572671513390058E-001	1.000000000000000E+000	-9.9175923E-006	12	-1.3084328E-005
2	0	0	1	0	1.130999971428537E-001	7.9009868E-002	7.9234518E-002	-1.564270479753356E-001	1.000000000000000E+000	-1.0231203E-005	12	-1.2394422E-005
2	0	0	1	0	1.150999970923294E-001	7.5008571E-002	7.5235918E-002	-1.556861470485780E-001	1.000000000000000E+000	-1.0543240E-005	12	-1.1713190E-005
2	0	0	1	0	1.170999970418052E-001	7.1007267E-002	7.1216092E-002	-1.548626295051592E-001	1.000000000000000E+000	-1.0853703E-005	12	-1.1028711E-005
2	0	0	1	0	1.190999969912809E-001	6.7005977E-002	6.7223862E-002	-1.540987693943965E-001	1.000000000000000E+000	-1.1162585E-005	12	-1.0359115E-005
2	0	0	1	0	1.210999969407567E-001	6.3004680E-002	6.3210405E-002	-1.532622037662392E-001	1.000000000000000E+000	-1.1469851E-005	12	-9.6877657E-006
2	0	0	1	0	1.230999968902324E-001	5.9003383E-002	5.9191644E-002	-1.525452883021593E-001	1.000000000000000E+000	-1.1775586E-005	12	-9.0294061E-006
2	0	0	1	0	1.250999968397082E-001	5.5002093E-002	5.5221681E-002	-1.518340220338561E-001	1.000000000000000E+000	-1.2079889E-005	12	-8.3845298E-006
2	0	0	1	0	1.270999967891839E-001	5.1000793E-002	5.1214594E-002	-1.510867495817363E-001	1.000000000000000E+000	-1.2382720E-005	12	-7.7378463E-006
2	0	0	1	0	1.290999967386597E-001	4.6999499E-002	4.7214933E-002	-1.504545539274758E-001	1.000000000000000E+000	-1.2684191E-005	12	-7.1037016E-006
2	0	0	1	0	1.310999966881354E-001	4.2998202E-002	4.3254521E-002	-1.498156557823269E-001	1.000000000000000E+000	-1.2984402E-005	12	-6.4802043E-006
2	0	0	1	0	1.330999966376112E-001	3.8996905E-002	3.9224092E-002	-1.491467429473738E-001	1.000000000000000E+000	-1.3283297E-005	12	-5.8501455E-006
2	0	0	1	0	1.350999965870869E-001	3.4995612E-002	3.5198968E-002	-1.485554941027649E-001	1.000000000000000E+000	-1.3580936E-005	12	-5.2290002E-006
2	0	0	1	0	1.370999965365627E-001	3.0994318E-002	3.1186575E-002	-1.480062588363780E-001	1.000000000000000E+000	-1.3877429E-005	12	-4.6158084E-006
2	0	0	1	0	1.390999964860384E-001	2.6993023E-002	2.7183728E-002	-1.474337047030629E-001	1.000000000000000E+000	-1.4172827E-005	12	-4.0077975E-006
2	0	0	1	0	1.410999964355142E-001	2.2991728E-002	2.3197858E-002	-1.469303531436404E-001	1.000000000000000E+000	-1.4467120E-005	12	-3.4084694E-006
2	0	0	1	0	1.430999963849899E-001	1.8990435E-002	1.9202437E-002	-1.464968816758807E-001	1.000000000000000E+000	-1.4760499E-005	12	-2.8130971E-006
2	0	0	1	0	1.450999963344657E-001	1.4989138E-002	1.5194288E-002	-1.459935325029716E-001	1.000000000000000E+000	-1.5052956E-005	12	-2.2182678E-006
2	0	0	1	0	1.470999962839414E-001	1.0987842E-002	1.1192502E-002	-1.455995939015544E-001	1.000000000000000E+000	-1.5344513E-005	12	-1.6296239E-006
2	0	0	1	0	1.490999962334172E-001	6.9865468E-003	7.1949614E-003	-1.452183863325948E-001	1.000000000000000E+000	-1.5635273E-005	12	-1.0448407E-006
2	0	0	1	0	1.510999961828929E-001	2.9852516E-003	3.1921153E-003	-1.447958583060727E-001	1.000000000000000E+000	-1.5925234E-005	12	-4.6220509E-007
2	0	0	1	0	1.530999961323687E-001	-1.0160442E-003	-8.2770537E-004	-1.444326406409449E-001	1.000000000000000E+000	-1.6214410E-005	12	1.1954768E-007
2	0	0	1	0	1.550999960818444E-001	-5.0173411E-003	-4.8517715E-003	-1.443090917164225E-001	1.000000000000000E+000	-1.6503123E-005	12	7.0015471E-007
2	0	0	1	0	1.570999960313202E-001	-9.0186382E-003	-8.8779591E-003	-1.438498685585934E-001	1.000000000000000E+000	-1.6791228E-005	12	1.2770932E-006
2	0	0	1	0	1.590999959807959E-001	-1.3019935E-002	-1.2878684E-002	-1.435540517171221E-001	1.000000000000000E+000	-1.7078566E-005	12	1.8487873E-006
2	0	0	1	0	1.610999959302717E-001	-1.7021231E-002	-1.6886838E-002	-1.433475631121026E-001	1.000000000000000E+000	-1.7365430E-005	12	2.4206870E-006
2	0	0	1	0	1.630999958797474E-001	-2.1022530E-002	-2.0905599E-002	-1.430676382733509E-001	1.000000000000000E+000	-1.7651832E-005	12	2.9909147E-006
2	0	0	1	0	1.650999958292232E-001	-2.5023827E-002	-2.4866009E-002	-1.427806618626666E-001	1.000000000000000E+000	-1.7937649E-005	12	3.5503851E-006
2	0	0	1	0	1.670999957786989E-001	-2.9025124E-002	-2.8900687E-002	-1.426193471270381E-001	1.000000000000000E+000	-1.8223032E-005	12	4.1217972E-006
2	0	0	1	0	1.690999957281747E-001	-3.3026423E-002	-3.2855786E-002	-1.424523914853733E-001	1.000000000000000E+000	-1.8508084E-005	12	4.6803852E-006
2	0	0	1	0	1.710999956776504E-001	-3.7027720E-002	-3.6901079E-002	-1.422293006002693E-001	1.000000000000000E+000	-1.8792776E-005	12	5.2484147E-006
2	0	0	1	0	1.730999956271262E-001	-4.1029017E-002	-4.0895443E-002	-1.421039971012052E-001	1.000000000000000E+000	-1.9077081E-005	12	5.8114060E-006
2	0	0	1	0	1.750999955766019E-001	-4.5030314E-002	-4.4936482E-002	-1.419910462993559E-001	1.000000000000000E+000	-1.9361190E-005	12	6.3805783E-006
2	0	0	1	0	1.770999955260777E-001	-4.9031612E-002	-4.8878852E-002	-1.418477338221336E-001	1.000000000000000E+000	-1.9645020E-005	12	6.9333546E-006
2	0	0	1	0	1.790999954755534E-001	-5.3032909E-002	-5.2876394E-002	-1.417721854830032E-001	1.000000000000000E+000	-1.9928650E-005	12	7.4964018E-006
2	0	0	1	0	1.810999954250292E-001	-5.7034206E-002	-5.6873944E-002	-1.417326478323149E-001	1.000000000000000E+000	-2.0212126E-005	12	8.0608943E-006
2	0	0	1	0	1.830999953745049E-001	-6.1035503E-002	-6.0923468E-002	-1.415829905147090E-001	1.000000000000000E+000	-2.0495423E-005	12	8.6257269E-006
2	0	0	1	0	1.850999953239807E-001	-6.5036803E-002	-6.4937986E-002	-1.415462835138896E-001	1.000000000000000E+000	-2.0778543E-005	12	9.1917309E-006
2	0	0	1	0	1.870999952734564E-001	-6.9038093E-002	-6.8888851E-002	-1.415233331564294E-001	1.000000000000000E+000	-2.1061618E-005	12	9.7493794E-006
2	0	0	1	0	1.890999952229322E-001	-7.3039398E-002	-7.2888516E-002	-1.414710922545055E-001	1.000000000000000E+000	-2.1344586E-005	12	1.0311618E-005
2	0	0	1	0	1.910999951724079E-001	-7.7040695E-002	-7.6891363E-002	-1.414262586282953E-001	1.000000000000000E+000	-2.1627440E-005	12	1.0874458E-005
2	0	0	1	0	1.930999951218837E-001	-8.1041984E-002	-8.0872990E-002	-1.414749663737083E-001	1.000000000000000E+000	-2.1910348E-005	12	1.1441503E-005
2	0	0	1	0	1.950999950713594E-001	-8.5043289E-002	-8.4920406E-002	-1.414626149667630E-001	1.000000000000000E+000	-2.2193282E-005	12	1.2013063E-005
2	0	0	1	0	1.970999950208352E-001	-8.9044593E-002	-8.8888235E-002	-1.414502584100574E-001	1.000000000000000E+000	-2.2476197E-005	12	1.2573264E-005
2	0	0	1	0	1.990999949703109E-001	-9.3045875E-002	-9.2927150E-002	-1.414965087654612E-001	1.000000000000000E+000	-2.2759134E-005	12	1.3148868E-005
2	0	0	1	0	2.010999949197867E-001	-9.7047180E-002	-9.6938491E-002	-1.415356849287892E-001	1.000000000000000E+000	-2.3042165E-005	12	1.3720256E-005
2	0	0	1	0	2.030999948692624E-001	-1.0104848E-001	-1.0088828E-001	-1.415194434909307E-001	1.000000000000000E+000	-2.3325249E-005	12	1.4277653E-005
2	0	0	1	0	2.050999948187382E-001	-1.0504977E-001	-1.0489645E-001	-1.416285208187116E-001	1.000000000000000E+000	-2.3608387E-005	12	1.4856329E-005
2	0	0	1	0	2.070999947682139E-001	-1.0905107E-001	-1.0892475E-001	-1.416680509331245E-001	1.000000000000000E+000	-2.3891655E-005	12	1.5431158E-005
2	0	0	1	0	2.090999947176897E-001	-1.1305237E-001	-1.1292017E-001	-1.417096983026973E-001	1.000000000000000E+000	-2.4175049E-005	12	1.6001884E-005
2	0	0	1	0	2.110999946671654E-001	-1.1705366E-001	-1.1690923E-001	-1.418374930476095E-001	1.000000000000000E+000	-2.4458606E-005	12	1.6582111E-005
2	0	0	1	0	2.130999946166412E-001	-1.2105495E-001	-1.2093542E-001	-1.419222127830535E-001	1.000000000000000E+000	-2.4742369E-005	12	1.7163422E-005
2	0	0	1	0	2.150999945661169E-001	-1.2505625E-001	-1.2493295E-001	-1.420168034075893E-001	1.000000000000000E+000	-2.5026322E-005	12	1.7742579E-005
2	0	0	1	0	2.170999945155927E-001	-1.2905756E-001	-1.2889762E-001	-1.420856338178664E-001	1.000000000000000E+000	-2.5310446E-005	12	1.8314500E-005
2	0	0	1	0	2.190999944650684E-001	-1.3305885E-001	-1.3294183E-001	-1.422349523652680E-001	1.000000000000000E+000	-2.5594780E-005	12	1.8908975E-005
2	0	0	1	0	2.210999944145442E-001	-1.3706015E-001	-1.3695210E-001	-1.423221448656280E-001	1.000000000000000E+000	-2.5879328E-005	12	1.9491317E-005
2	0	0	1	0	2.230999943640199E-001	-1.4106144E-001	-1.4088918E-001	-1.424347394155725E-001	1.000000000000000E+000	-2.6164087E-005	12	2.0067515E-005
2	0	0	1	0	2.250999943134957E-001	-1.4506274E-001	-1.4495249E-001	-1.426394662865076E-001	1.000000000000000E+000	-2.6449168E-005	12	2.0675945E-005
2	0	0	1	0	2.270999942629715E-001	-1.4906403E-001	-1.4895959E-001	-1.427538365581615E-001	1.000000000000000E+000	-2.6734557E-005	12	2.1264554E-005
2	0	0	1	0	2.290999942124472E-001	-1.5306534E-001	-1.5290302E-001	-1.428269015418160E-001	1.000000000000000E+000	-2.7020149E-005	12	2.1838665E-005
2	0	0	1	0	2.310999941619230E-001	-1.5703885E-001	-1.5686555E-001	-1.428431473015936E-001	1.000000000000000E+000	-2.7305841E-005	12	2.2407170E-005
2	0	0	1	0	2.330999941113987E-001	-1.6096790E-001	-1.6084507E-001	-1.430725839001954E-001	1.000000000000000E+000	-2.7591745E-005	12	2.3012521E-005
2	0	0	1	0	2.350999940608745E-001	-1.6496919E-001	-1.6482140E-001	-1.432038944913079E-001	1.000000000000000E+000	-2.7878061E-005	12	2.3603066E-005
2	0	0	1	0	2.370999940103502E-001	-1.6897050E-001	-1.6885819E-001	-1.434485102977816E-001	1.000000000000000E+000	-2.8164743E-005	12	2.4222456E-005
2	0	0	1	0	2.390999939598260E-001	-1.7297179E-001	-1.7285891E-001	-1.436094818329561E-001	1.000000000000000E+000	-2.8451832E-005	12	2.4824178E-005
2	0	0	1	0	2.410999939093017E-001	-1.7697309E-001	-1.7682569E-001	-1.438025611342812E-001	1.000000000000000E+000	-2.8739269E-005	12	2.5427988E-005
2	0	0	1	0	2.430999938587775E-001	-1.8097439E-001	-1.8083175E-001	-1.440002393905564E-001	1.000000000000000E+000	-2.9027084E-005	12	2.6039814E-005
2	0	0	1	0	2.450999938082532E-001	-1.8497567E-001	-1.8487489E-001	-1.442395549966022E-001	1.000000000000000E+000	-2.9315332E-005	12	2.6666272E-005
2	0	0	1	0	2.470999937577290E-001	-1.8897697E-001	-1.8885545E-001	-1.443984033960279E-001	1.000000000000000E+000	-2.9603962E-005	12	2.7270426E-005
2	0	0	1	0	2.490999937072047E-001	-1.9297826E-001	-1.9282436E-001	-1.446172426771630E-001	1.000000000000000E+000	-2.9892992E-005	12	2.7885728E-005
2	0	0	1	0	2.510999936566805E-001	-1.9697957E-001	-1.9686539E-001	-1.448452771680116E-001	1.000000000000000E+000	-3.0182491E-005	12	2.8515022E-005
2	0	0	0	0	2.521999936288921E-001	-1.9918025E-001	-1.9896810E-001	-1.448392719030380E-001	1.000000000000000E+000	-3.0341827E-005	12	2.8818395E-005
2	0	0	1	0	2.523999936238397E-001	-1.9958037E-001	-1.9942641E-001	-1.449981033802032E-001	1.000000000000000E+000	-3.0370828E-005	12	2.8916451E-005
2	0	0	0	0	2.525999936187873E-001	-1.9998050E-001	-1.9982743E-001	-1.449981033802032E-001	1.000000000000000E+000	-3.0399826E-005	12	2.8974599E-005
2	0	0	1	0	2.527999936137348E-001	-1.9958037E-001	-1.9978924E-001	-1.390955001115799E-001	1.000000000000000E+000	-3.0427645E-005	12	2.7789785E-005
2	0	0	1	0	2.538999935859465E-001	-1.9737971E-001	-1.9736402E-001	-1.249535168382054E-001	1.000000000000000E+000	-3.0565887E-005	12	2.4661327E-005
2	0	0	1	0	2.558999935354223E-001	-1.9337840E-001	-1.9331557E-001	-1.159015715093119E-001	1.000000000000000E+000	-3.0805590E-005	12	2.2405578E-005
2	0	0	1	0	2.578999934848980E-001	-1.8937711E-001	-1.8933076E-001	-1.097483438093656E-001	1.000000000000000E+000	-3.1030548E-005	12	2.0778736E-005
2	0	0	1	0	2.598999934343738E-001	-1.8537579E-001	-1.8532896E-001	-1.046957152413798E-001	1.000000000000000E+000	-3.1244432E-005	12	1.9403147E-005
2	0	0	1	0	2.618999933838495E-001	-1.8137452E-001	-1.8130066E-001	-1.003317589703430E-001	1.000000000000000E+000	-3.1449021E-005	12	1.8190214E-005
2	0	0	1	0	2.638999933333253E-001	-1.7737322E-001	-1.7727129E-001	-9.653858523880543E-002	1.000000000000000E+000	-3.1645479E-005	12	1.7113520E-005
2	0	0	1	0	2.658999932828010E-001	-1.7337191E-001	-1.7331511E-001	-9.302462238055265E-002	1.000000000000000E+000	-3.1834650E-005	12	1.6122573E-005
2	0	0	1	0	2.678999932322768E-001	-1.6937062E-001	-1.6931438E-001	-8.974538771467971E-002	1.000000000000000E+000	-3.2017095E-005	12	1.5195185E-005
2	0	0	1	0	2.698999931817525E-001	-1.6536933E-001	-1.6526379E-001	-8.678490613723011E-002	1.000000000000000E+000	-3.2193337E-005	12	1.4342402E-005
2	0	0	1	0	2.718999931312283E-001	-1.6136803E-001	-1.6128007E-001	-8.403903512549338E-002	1.000000000000000E+000	-3.2363911E-005	12	1.3553821E-005
2	0	0	1	0	2.738999930807040E-001	-1.5742788E-001	-1.5737376E-001	-8.165144322588780E-002	1.000000000000000E+000	-3.2529297E-005	12	1.2849794E-005
2	0	0	1	0	2.758999930301798E-001	-1.5346546E-001	-1.5336983E-001	-7.903335874046535E-002	1.000000000000000E+000	-3.2689732E-005	12	1.2121332E-005
2	0	0	1	0	2.778999929796555E-001	-1.4946416E-001	-1.4940625E-001	-7.671672363277260E-002	1.000000000000000E+000	-3.2845252E-005	12	1.1461958E-005
2	0	0	1	0	2.798999929291313E-001	-1.4546287E-001	-1.4536415E-001	-7.439408364249772E-002	1.000000000000000E+000	-3.2996089E-005	12	1.0814233E-005
2	0	0	1	0	2.818999928786070E-001	-1.4146158E-001	-1.4136979E-001	-7.226805108883938E-002	1.000000000000000E+000	-3.3142529E-005	12	1.0216520E-005
2	0	0	1	0	2.838999928280828E-001	-1.3746028E-001	-1.3737224E-001	-7.022003217732875E-002	1.000000000000000E+000	-3.3284799E-005	12	9.6462827E-006
2	0	0	1	0	2.858999927775585E-001	-1.3345899E-001	-1.3338742E-001	-6.819425872688734E-002	1.000000000000000E+000	-3.3423003E-005	12	9.0962558E-006
2	0	0	1	0	2.878999927270343E-001	-1.2945768E-001	-1.2937185E-001	-6.631073328268644E-002	1.000000000000000E+000	-3.3557302E-005	12	8.5787424E-006
2	0	0	1	0	2.898999926765100E-001	-1.2545639E-001	-1.2533399E-001	-6.448014761634890E-002	1.000000000000000E+000	-3.3687895E-005	12	8.0815544E-006
2	0	0	1	0	2.918999926259858E-001	-1.2145509E-001	-1.2137464E-001	-6.273358308519374E-002	1.000000000000000E+000	-3.3814922E-005	12	7.6142660E-006
2	0	0	1	0	2.938999925754615E-001	-1.1745379E-001	-1.1736118E-001	-6.099336153015944E-002	1.000000000000000E+000	-3.3938461E-005	12	7.1582531E-006
2	0	0	1	0	2.958999925249373E-001	-1.1345249E-001	-1.1334985E-001	-5.938445728598807E-002	1.000000000000000E+000	-3.4058670E-005	12	6.7312194E-006
2	0	0	1	0	2.978999924744130E-001	-1.0945120E-001	-1.0939579E-001	-5.775402104659902E-002	1.000000000000000E+000	-3.4175631E-005	12	6.3180469E-006
2	0	0	1	0	2.998999924238888E-001	-1.0544991E-001	-1.0539401E-001	-5.619029753708871E-002	1.000000000000000E+000	-3.4289413E-005	12	5.9221211E-006
2	0	0	1	0	3.018999923733645E-001	-1.0144860E-001	-1.0138586E-001	-5.469893726209790E-002	1.000000000000000E+000	-3.4400131E-005	12	5.5456990E-006
2	0	0	1	0	3.038999923228403E-001	-9.7447306E-002	-9.7360730E-002	-5.318533923774427E-002	1.000000000000000E+000	-3.4507866E-005	12	5.1781635E-006
2	0	0	1	0	3.058999922723160E-001	-9.3446009E-002	-9.3352579E-002	-5.171551001452224E-002	1.000000000000000E+000	-3.4612625E-005	12	4.8277761E-006
2	0	0	1	0	3.078999922217918E-001	-8.9444719E-002	-8.9328513E-002	-5.030780338549645E-002	1.000000000000000E+000	-3.4714500E-005	12	4.4939211E-006
2	0	0	1	0	3.098999921712675E-001	-8.5443415E-002	-8.5365981E-002	-4.900881841604143E-002	1.000000000000000E+000	-3.4813696E-005	12	4.1836856E-006
2	0	0	1	0	3.118999921207433E-001	-8.1442125E-002	-8.1351474E-002	-4.760711592017391E-002	1.000000000000000E+000	-3.4910179E-005	12	3.8729090E-006
2	0	0	1	0	3.138999920702190E-001	-7.7440813E-002	-7.7301934E-002	-4.631731097955105E-002	1.000000000000000E+000	-3.5003945E-005	12	3.5804178E-006
2	0	0	1	0	3.158999920196948E-001	-7.3439524E-002	-7.3351070E-002	-4.508468732092297E-002	1.000000000000000E+000	-3.5095200E-005	12	3.3070100E-006
2	0	0	1	0	3.178999919691705E-001	-6.9438234E-002	-6.9347166E-002	-4.379276248315966E-002	1.000000000000000E+000	-3.5183937E-005	12	3.0369040E-006
2	0	0	1	0	3.198999919186463E-001	-6.5436929E-002	-6.5328404E-002	-4.256437500346999E-002	1.000000000000000E+000	-3.5270165E-005	12	2.7806627E-006
2	0	0	1	0	3.218999918681220E-001	-6.1435632E-002	-6.1378606E-002	-4.134763528903329E-002	1.000000000000000E+000	-3.5353944E-005	12	2.5378602E-006
2	0	0	1	0	3.238999918175978E-001	-5.7434332E-002	-5.7375751E-002	-4.020572837826974E-002	1.000000000000000E+000	-3.5435361E-005	12	2.3068339E-006
2	0	0	1	0	3.258999917670735E-001	-5.3433042E-002	-5.3325158E-002	-3.899075647819328E-002	1.000000000000000E+000	-3.5514429E-005	12	2.0791883E-006
2	0	0	1	0	3.278999917165493E-001	-4.9431741E-002	-4.9366880E-002	-3.790215227854787E-002	1.000000000000000E+000	-3.5591220E-005	12	1.8711111E-006
2	0	0	1	0	3.298999916660250E-001	-4.5430444E-002	-4.5352358E-002	-3.676307077492114E-002	1.000000000000000E+000	-3.5665758E-005	12	1.6672919E-006
2	0	0	1	0	3.318999916155008E-001	-4.1429147E-002	-4.1353755E-002	-3.563846130620940E-002	1.000000000000000E+000	-3.5738063E-005	12	1.4737842E-006
2	0	0	1	0	3.338999915649765E-001	-3.7427850E-002	-3.7336055E-002	-3.459327005677748E-002	1.000000000000000E+000	-3.5808189E-005	12	1.2915763E-006
2	0	0	1	0	3.358999915144523E-001	-3.3426553E-002	-3.3318352E-002	-3.350184140476301E-002	1.000000000000000E+000	-3.5876179E-005	12	1.1162261E-006
2	0	0	1	0	3.378999914639280E-001	-2.9425254E-002	-2.9374916E-002	-3.244359375215325E-002	1.000000000000000E+000	-3.5942005E-005	12	9.5302784E-007
2	0	0	1	0	3.398999914134038E-001	-2.5423957E-002	-2.5326449E-002	-3.137722538061399E-002	1.000000000000000E+000	-3.6005738E-005	12	7.9467372E-007
2	0	0	1	0	3.418999913628795E-001	-2.1422658E-002	-2.1388318E-002	-3.043969817372277E-002	1.000000000000000E+000	-3.6067457E-005	12	6.5105394E-007
2	0	0	1	0	3.438999913123553E-001	-1.7421363E-002	-1.7337728E-002	-2.940192286324511E-002	1.000000000000000E+000	-3.6127189E-005	12	5.0976257E-007
2	0	0	1	0	3.458999912618310E-001	-1.3420067E-002	-1.3286078E-002	-2.840826883483610E-002	1.000000000000000E+000	-3.6184891E-005	12	3.7743447E-007
2	0	0	1	0	3.478999912113068E-001	-9.4187688E-003	-9.3320329E-003	-2.742661888785528E-002	1.000000000000000E+000	-3.6240610E-005	12	2.5594611E-007
2	0	0	1	0	3.498999911607825E-001	-5.4174708E-003	-5.3153932E-003	-2.633977822915765E-002	1.000000000000000E+000	-3.6294274E-005	12	1.4000628E-007
2	0	0	1	0	3.518999911102583E-001	-1.4161741E-003	-1.2669262E-003	-2.536801083220377E-002	1.000000000000000E+000	-3.6345838E-005	12	3.2139397E-008
2	0	0	1	0	3.538999910597340E-001	2.5851221E-003	2.7454686E-003	-2.444954454484910E-002	1.000000000000000E+000	-3.6395533E-005	12	-6.7125455E-008
2	0	0	1	0	3.558999910092098E-001	6.5864171E-003	6.7355838E-003	-2.348166021207959E-002	1.000000000000000E+000	-3.6443373E-005	12	-1.5816269E-007
2	0	0	1	0	3.578999909586855E-001	1.0587713E-002	1.0742673E-002	-2.255013334595579E-002	1.000000000000000E+000	-3.6489302E-005	12	-2.4224869E-007
2	0	0	1	0	3.598999909081613E-001	1.4589008E-002	1.4750825E-002	-2.167543683956163E-002	1.000000000000000E+000	-3.6533427E-005	12	-3.1973059E-007
2	0	0	1	0	3.618999908576370E-001	1.8590305E-002	1.8712293E-002	-2.070649417752657E-002	1.000000000000000E+000	-3.6575708E-005	12	-3.8746600E-007
2	0	0	1	0	3.638999908071128E-001	2.2591598E-002	2.2743784E-002	-1.976931795434211E-002	1.000000000000000E+000	-3.6616104E-005	12	-4.4962908E-007
2	0	0	1	0	3.658999907565885E-001	2.6592894E-002	2.6764667E-002	-1.885967728149907E-002	1.000000000000000E+000	-3.6654619E-005	12	-5.0477297E-007
2	0	0	1	0	3.678999907060643E-001	3.0594191E-002	3.0761149E-002	-1.791155938473010E-002	1.000000000000000E+000	-3.6691315E-005	12	-5.5098013E-007
2	0	0	1	0	3.698999906555400E-001	3.4595482E-002	3.4743834E-002	-1.697897431565948E-002	1.000000000000000E+000	-3.6726105E-005	12	-5.8991469E-007
2	0	0	1	0	3.718999906050158E-001	3.8596783E-002	3.8775321E-002	-1.604144600686502E-002	1.000000000000000E+000	-3.6759029E-005	12	-6.2201224E-007
2	0	0	1	0	3.738999905544915E-001	4.2598072E-002	4.2761195E-002	-1.512650821172834E-002	1.000000000000000E+000	-3.6790101E-005	12	-6.4682757E-007
2	0	0	1	0	3.758999905039673E-001	4.6599369E-002	4.6764039E-002	-1.416921371815583E-002	1.000000000000000E+000	-3.6819329E-005	12	-6.6260964E-007
2	0	0	1	0	3.778999904534430E-001	5.0600663E-002	5.0739307E-002	-1.324509970658661E-002	1.000000000000000E+000	-3.6846646E-005	12	-6.7204718E-007
2	0	0	1	0	3.798999904029188E-001	5.4601964E-002	5.4760188E-002	-1.230933623588093E-002	1.000000000000000E+000	-3.6872105E-005	12	-6.7406154E-007
2	0	0	1	0	3.818999903523945E-001	5.8603257E-002	5.8789555E-002	-1.134851099494781E-002	1.000000000000000E+000	-3.6895664E-005	12	-6.6717394E-007
2	0	0	1	0	3.838999903018703E-001	6.2604547E-002	6.2801950E-002	-1.031850152523678E-002	1.000000000000000E+000	-3.6917238E-005	12	-6.4802202E-007
2	0	0	1	0	3.858999902513460E-001	6.6605844E-002	6.6765539E-002	-9.384502955779472E-003	1.000000000000000E+000	-3.6936843E-005	12	-6.2656142E-007
2	0	0	1	0	3.878999902008218E-001	7.0607148E-002	7.0768394E-002	-8.340021698839128E-003	1.000000000000000E+000	-3.6954461E-005	12	-5.9020994E-007
2	0	0	1	0	3.898999901502975E-001	7.4608438E-002	7.4750014E-002	-7.278595815882360E-003	1.000000000000000E+000	-3.6969974E-005	12	-5.4407514E-007
2	0	0	1	0	3.918999900997733E-001	7.8609735E-002	7.8763463E-002	-6.286002520533268E-003	1.000000000000000E+000	-3.6983423E-005	12	-4.9510732E-007
2	0	0	1	0	3.938999900492490E-001	8.2611032E-002	8.2770564E-002	-5.198808829744739E-003	1.000000000000000E+000	-3.6994781E-005	12	-4.3030835E-007
2	0	0	1	0	3.958999899987248E-001	8.6612321E-002	8.6790375E-002	-4.070669458643442E-003	1.000000000000000E+000	-3.7003967E-005	12	-3.5329492E-007
2	0	0	1	0	3.978999899482005E-001	9.0613611E-002	9.0782620E-002	-2.950295449459690E-003	1.000000000000000E+000	-3.7010872E-005	12	-2.6783556E-007
2	0	0	1	0	3.998999898976763E-001	9.4614916E-002	9.4801374E-002	-1.754735477965775E-003	1.000000000000000E+000	-3.7015474E-005	12	-1.6635133E-007
2	0	0	1	0	4.018999898471520E-001	9.8616213E-002	9.8774523E-002	-5.231713178833128E-004	1.000000000000000E+000	-3.7017617E-005	12	-5.1675997E-008
2	1	0	1	0	4.038999897966278E-001	1.0261751E-001	1.0281026E-001	7.253361436849260E-004	1.000000000000000E+000	-3.7017278E-005	12	7.4571993E-008
2	1	0	1	0	4.058999897461035E-001	1.0661881E-001	1.0674837E-001	2.064913554275134E-003	1.000000000000000E+000	-3.7014364E-005	12	2.2042616E-007
2	1	0	1	0	4.078999896955793E-001	1.1062010E-001	1.1079897E-001	3.454614957970788E-003	1.000000000000000E+000	-3.7008700E-005	12	3.8276778E-007
2	1	0	1	0	4.098999896450550E-001	1.1462139E-001	1.1478590E-001	4.925502702361778E-003	1.000000000000000E+000	-3.7000165E-005	12	5.6537829E-007
2	1	0	1	0	4.118999895945308E-001	1.1862269E-001	1.1875267E-001	6.387565937075124E-003	1.000000000000000E+000	-3.6988706E-005	12	7.5854052E-007
2	1	0	1	0	4.138999895440065E-001	1.2262399E-001	1.2276825E-001	8.038476270081030E-003	1.000000000000000E+000	-3.6974106E-005	12	9.8686974E-007
2	1	0	1	0	4.158999894934823E-001	1.2662528E-001	1.2679867E-001	9.764571404048156E-003	1.000000000000000E+000	-3.6956117E-005	12	1.2381347E-006
2	1	0	1	0	4.178999894429580E-001	1.3062657E-001	1.3074636E-001	1.151608284777067E-002	1.000000000000000E+000	-3.6934634E-005	12	1.5056860E-006
2	1	0	1	0	4.198999893924338E-001	1.3462788E-001	1.3479906E-001	1.341125851932803E-002	1.000000000000000E+000	-3.6909511E-005	12	1.8078251E-006
2	1	0	1	0	4.218999893419095E-001	1.3862917E-001	1.3880084E-001	1.546810151174011E-002	1.000000000000000E+000	-3.6880410E-005	12	2.1469855E-006
2	1	0	1	0	4.238999892913853E-001	1.4263046E-001	1.4278354E-001	1.756977250806815E-002	1.000000000000000E+000	-3.6847159E-005	12	2.5086742E-006
2	1	0	1	0	4.258999892408610E-001	1.4663176E-001	1.4678851E-001	1.983487673775630E-002	1.000000000000000E+000	-3.6809535E-005	12	2.9115320E-006
2	1	0	1	0	4.278999891903368E-001	1.5058303E-001	1.5074785E-001	2.199231942480173E-002	1.000000000000000E+000	-3.6767458E-005	12	3.3152949E-006
2	1	0	1	0	4.298999891398125E-001	1.5453431E-001	1.5470721E-001	2.458817051916007E-002	1.000000000000000E+000	-3.6720627E-005	12	3.8039673E-006
2	1	0	1	0	4.318999890892883E-001	1.5853560E-001	1.5873232E-001	2.732168700175757E-002	1.000000000000000E+000	-3.6668447E-005	12	4.3368350E-006
2	1	0	1	0	4.338999890387640E-001	1.6253690E-001	1.6271713E-001	3.020062945870455E-002	1.000000000000000E+000	-3.6610654E-005	12	4.9141599E-006
2	1	0	1	0	4.358999889882398E-001	1.6653818E-001	1.6669133E-001	3.323312110458379E-002	1.000000000000000E+000	-3.6546924E-005	12	5.5396731E-006
2	1	0	1	0	4.378999889377155E-001	1.7053950E-001	1.7066342E-001	3.640575111057831E-002	1.000000000000000E+000	-3.6476977E-005	12	6.2131298E-006
2	1	0	1	0	4.398999888871913E-001	1.7454080E-001	1.7466308E-001	3.980746439790689E-002	1.000000000000000E+000	-3.6400412E-005	12	6.9528942E-006
2	1	0	1	0	4.418999888366670E-001	1.7854209E-001	1.7870837E-001	4.330907186845745E-002	1.000000000000000E+000	-3.6316953E-005	12	7.7396935E-006
2	1	0	1	0	4.438999887861428E-001	1.8254337E-001	1.8265605E-001	4.692858052779528E-002	1.000000000000000E+000	-3.6226345E-005	12	8.5717893E-006
2	1	0	1	0	4.458999887356185E-001	1.8654467E-001	1.8668859E-001	5.078458733057944E-002	1.000000000000000E+000	-3.6128255E-005	12	9.4809029E-006
2	1	0	1	0	4.478999886850943E-001	1.9054598E-001	1.9070522E-001	5.477967170493991E-002	1.000000000000000E+000	-3.6022306E-005	12	1.0446770E-005
2	1	0	1	0	4.498999886345700E-001	1.9454728E-001	1.9469640E-001	5.889088678749337E-002	1.000000000000000E+000	-3.5908211E-005	12	1.1465843E-005
2	1	0	1	0	4.518999885840458E-001	1.9854857E-001	1.9867696E-001	6.311470125284468E-002	1.000000000000000E+000	-3.5785804E-005	12	1.2539437E-005
2	1	0	1	0	4.538999885335215E-001	2.0254987E-001	2.0267454E-001	6.748747921826892E-002	1.000000000000000E+000	-3.5654772E-005	12	1.3677994E-005
2	1	0	1	0	4.558999884829973E-001	2.0655115E-001	2.0667948E-001	7.184048755476002E-002	1.000000000000000E+000	-3.5515026E-005	12	1.4847955E-005
2	1	0	1	0	4.578999884324730E-001	2.1055244E-001	2.1070142E-001	7.631350763969991E-002	1.000000000000000E+000	-3.5366440E-005	12	1.6079364E-005
2	1	0	1	0	4.598999883819488E-001	2.1455373E-001	2.1472231E-001	8.085854025234274E-002	1.000000000000000E+000	-3.5208799E-005	12	1.7362132E-005
2	1	0	1	0	4.618999883314245E-001	2.1855503E-001	2.1872939E-001	8.528885664094954E-002	1.000000000000000E+000	-3.5042209E-005	12	1.8655181E-005
2	1	0	1	0	4.638999882809003E-001	2.2255634E-001	2.2266540E-001	8.972764295241276E-002	1.000000000000000E+000	-3.4866756E-005	12	1.9979241E-005
2	1	0	1	0	4.658999882303760E-001	2.2655763E-001	2.2671176E-001	9.415477835702579E-002	1.000000000000000E+000	-3.4682402E-005	12	2.1345995E-005
2	1	0	1	0	4.678999881798518E-001	2.3055892E-001	2.3069975E-001	9.848060513710788E-002	1.000000000000000E+000	-3.4489320E-005	12	2.2719450E-005
2	1	0	1	0	4.698999881293275E-001	2.3456022E-001	2.3468773E-001	1.026317088140380E-001	1.000000000000000E+000	-3.4287808E-005	12	2.4086403E-005
2	1	0	1	0	4.718999880788033E-001	2.3856153E-001	2.3873831E-001	1.066571486007887E-001	1.000000000000000E+000	-3.4078104E-005	12	2.5463149E-005
2	1	0	1	0	4.738999880282790E-001	2.4256282E-001	2.4271889E-001	1.105078627523550E-001	1.000000000000000E+000	-3.3860528E-005	12	2.6822347E-005
2	1	0	1	0	4.758999879777548E-001	2.4656412E-001	2.4671006E-001	1.140122948935538E-001	1.000000000000000E+000	-3.3635650E-005	12	2.8127981E-005
2	1	0	1	0	4.778999879272305E-001	2.5056541E-001	2.5072032E-001	1.173730626873704E-001	1.000000000000000E+000	-3.3403914E-005	12	2.9427812E-005
2	1	0	1	0	4.798999878767063E-001	2.5456670E-001	2.5470623E-001	1.204740342024404E-001	1.000000000000000E+000	-3.3165732E-005	12	3.0685489E-005
2	1	0	1	0	4.818999878261820E-001	2.5856799E-001	2.5868997E-001	1.232594440209343E-001	1.000000000000000E+000	-3.2921689E-005	12	3.1885982E-005
2	1	0	1	0	4.838999877756578E-001	2.6256931E-001	2.6273841E-001	1.257885702297145E-001	1.000000000000000E+000	-3.2672375E-005	12	3.3049488E-005
2	1	0	1	0	4.858999877251335E-001	2.6657060E-001	2.6677310E-001	1.279975462805141E-001	1.000000000000000E+000	-3.2418331E-005	12	3.4146302E-005
2	1	0	1	0	4.878999876746093E-001	2.7057189E-001	2.7076322E-001	1.298327116674047E-001	1.000000000000000E+000	-3.2160293E-005	12	3.5153924E-005
2	1	0	1	0	4.898999876240850E-001	2.7457318E-001	2.7469072E-001	1.314246836522621E-001	1.000000000000000E+000	-3.1898853E-005	12	3.6101141E-005
2	1	0	1	0	4.918999875735608E-001	2.7857447E-001	2.7872330E-001	1.326798906100319E-001	1.000000000000000E+000	-3.1634630E-005	12	3.6980979E-005
2	1	0	1	0	4.938999875230365E-001	2.8257576E-001	2.8273675E-001	1.336414257400773E-001	1.000000000000000E+000	-3.1368210E-005	12	3.7785343E-005
2	1	0	1	0	4.958999874725123E-001	2.8657705E-001	2.8676081E-001	1.342792679238807E-001	1.000000000000000E+000	-3.1100226E-005	12	3.8506030E-005
2	1	0	1	0	4.978999874219880E-001	2.9057834E-001	2.9074773E-001	1.347159136186946E-001	1.000000000000000E+000	-3.0831201E-005	12	3.9168346E-005
2	1	0	1	0	4.998999873714638E-001	2.9457965E-001	2.9475376E-001	1.349178116555172E-001	1.000000000000000E+000	-3.0561532E-005	12	3.9767532E-005
2	1	0	1	0	5.018999873209395E-001	2.9858097E-001	2.9877359E-001	1.348157952743352E-001	1.000000000000000E+000	-3.0291809E-005	12	4.0279399E-005
2	1	0	1	0	5.038999872704153E-001	3.0258226E-001	3.0276155E-001	1.345535344719087E-001	1.000000000000000E+000	-3.0022473E-005	12	4.0737636E-005
2	1	0	1	0	5.058999872198910E-001	3.0658352E-001	3.0674955E-001	1.341726607917944E-001	1.000000000000000E+000	-2.9753757E-005	12	4.1157404E-005
2	1	0	1	0	5.078999871693668E-001	3.1058481E-001	3.1074074E-001	1.334702242780217E-001	1.000000000000000E+000	-2.9486160E-005	12	4.1474636E-005
2	1	0	1	0	5.098999871188425E-001	3.1458613E-001	3.1475949E-001	1.328196817145607E-001	1.000000000000000E+000	-2.9219935E-005	12	4.1806255E-005
2	1	0	1	0	5.118999870683183E-001	3.1858742E-001	3.1873369E-001	1.320010986593032E-001	1.000000000000000E+000	-2.8955194E-005	12	4.2073196E-005
2	1	0	1	0	5.138999870177940E-001	3.2258874E-001	3.2274926E-001	1.310169832916778E-001	1.000000000000000E+000	-2.8692244E-005	12	4.2285636E-005
2	1	0	1	0	5.158999869672698E-001	3.2659003E-001	3.2674685E-001	1.300649758842258E-001	1.000000000000000E+000	-2.8431254E-005	12	4.2498323E-005
2	1	0	1	0	5.178999869167455E-001	3.3059129E-001	3.3073908E-001	1.290307376006645E-001	1.000000000000000E+000	-2.8172255E-005	12	4.2675507E-005
2	1	0	1	0	5.198999868662213E-001	3.3459261E-001	3.3473024E-001	1.279135306847619E-001	1.000000000000000E+000	-2.7915410E-005	12	4.2816526E-005
2	1	0	1	0	5.218999868156970E-001	3.3859390E-001	3.3876282E-001	1.268154067155495E-001	1.000000000000000E+000	-2.7660788E-005	12	4.2960346E-005
2	1	0	1	0	5.238999867651728E-001	3.4259516E-001	3.4277201E-001	1.257515085097926E-001	1.000000000000000E+000	-2.7408307E-005	12	4.3104097E-005
2	1	0	1	0	5.258999867146485E-001	3.4659648E-001	3.4679073E-001	1.245820705290599E-001	1.000000000000000E+000	-2.7158076E-005	12	4.3203909E-005
2	1	0	1	0	5.278999866641243E-001	3.5059774E-001	3.5078615E-001	1.234708730060249E-001	1.000000000000000E+000	-2.6910153E-005	12	4.3311873E-005
2	1	0	1	0	5.298999866136000E-001	3.5459909E-001	3.5476461E-001	1.224048604425558E-001	1.000000000000000E+000	-2.6664376E-005	12	4.3424912E-005
2	1	0	1	0	5.318999865630758E-001	3.5860041E-001	3.5878444E-001	1.212611947137501E-001	1.000000000000000E+000	-2.6420821E-005	12	4.3506629E-005
2	1	0	1	0	5.338999865125516E-001	3.6260167E-001	3.6276501E-001	1.202029414303574E-001	1.000000000000000E+000	-2.6179479E-005	12	4.3605422E-005
2	1	0	1	0	5.358999864620273E-001	3.6660299E-001	3.6675936E-001	1.192174116456752E-001	1.000000000000000E+000	-2.5940148E-005	12	4.3724103E-005
2	1	0	1	0	5.378999864115031E-001	3.7060428E-001	3.7079296E-001	1.181979938200026E-001	1.000000000000000E+000	-2.5702844E-005	12	4.3826982E-005
2	1	0	1	0	5.398999863609788E-001	3.7460554E-001	3.7479797E-001	1.172029256849780E-001	1.000000000000000E+000	-2.5467521E-005	12	4.3927419E-005
2	1	0	1	0	5.418999863104546E-001	3.7860686E-001	3.7877324E-001	1.162773976409679E-001	1.000000000000000E+000	-2.5234132E-005	12	4.4042768E-005
2	1	0	1	0	5.438999862599303E-001	3.8260815E-001	3.8283339E-001	1.153391631313654E-001	1.000000000000000E+000	-2.5002601E-005	12	4.4155684E-005
2	1	0	1	0	5.458999862094061E-001	3.8660944E-001	3.8676831E-001	1.144323461242800E-001	1.000000000000000E+000	-2.4772928E-005	12	4.4258806E-005
2	1	0	1	0	5.478999861588818E-001	3.9061072E-001	3.9078280E-001	1.136194237575790E-001	1.000000000000000E+000	-2.4544954E-005	12	4.4400516E-005
2	1	0	1	0	5.498999861083576E-001	3.9461204E-001	3.9481112E-001	1.128343838613046E-001	1.000000000000000E+000	-2.4318582E-005	12	4.4548269E-005
2	1	0	1	0	5.518999860578333E-001	3.9861330E-001	3.9882776E-001	1.120313383467475E-001	1.000000000000000E+000	-2.4093788E-005	12	4.4681208E-005
2	1	0	1	0	5.538999860073091E-001	4.0261468E-001	4.0280941E-001	1.113525521909147E-001	1.000000000000000E+000	-2.3870456E-005	12	4.4853856E-005
2	1	0	1	0	5.558999859567848E-001	4.0661594E-001	4.0679312E-001	1.106430555211977E-001	1.000000000000000E+000	-2.3648574E-005	12	4.5008834E-005
2	1	0	1	0	5.578999859062606E-001	4.1061720E-001	4.1080868E-001	1.099303745076112E-001	1.000000000000000E+000	-2.3428061E-005	12	4.5160352E-005
2	1	0	1	0	5.598999858557363E-001	4.1461855E-001	4.1478083E-001	1.092759418647300E-001	1.000000000000000E+000	-2.3208931E-005	12	4.5325567E-005
2	1	0	1	0	5.618999858052121E-001	4.1861981E-001	4.1880807E-001	1.086974008729966E-001	1.000000000000000E+000	-2.2990987E-005	12	4.5523349E-005
2	1	0	1	0	5.638999857546878E-001	4.2262110E-001	4.2281723E-001	1.080849764419124E-001	1.000000000000000E+000	-2.2774271E-005	12	4.5700192E-005
2	1	0	1	0	5.658999857041636E-001	4.2662242E-001	4.2681372E-001	1.074947807210266E-001	1.000000000000000E+000	-2.2558757E-005	12	4.5880246E-005
2	1	0	1	0	5.678999856536393E-001	4.3062368E-001	4.3081552E-001	1.070073105737620E-001	1.000000000000000E+000	-2.2344318E-005	12	4.6100409E-005
2	1	0	1	0	5.698999856031151E-001	4.3462497E-001	4.3480143E-001	1.064986553942113E-001	1.000000000000000E+000	-2.2130855E-005	12	4.6305766E-005
2	1	0	1	0	5.718999855525908E-001	4.3862629E-001	4.3881699E-001	1.059780076175230E-001	1.000000000000000E+000	-2.1918409E-005	12	4.6504952E-005
2	1	0	1	0	5.738999855020666E-001	4.4262755E-001	4.4280392E-001	1.055477188379479E-001	1.000000000000000E+000	-2.1706895E-005	12	4.6736943E-005
2	1	0	1	0	5.758999854515423E-001	4.4662887E-001	4.4682372E-001	1.051258951596944E-001	1.000000000000000E+000	-2.1496277E-005	12	4.6972742E-005
2	1	0	1	0	5.778999854010181E-001	4.5063019E-001	4.5080537E-001	1.046719655423656E-001	1.000000000000000E+000	-2.1286505E-005	12	4.7186684E-005
2	1	0	1	0	5.798999853504938E-001	4.5463145E-001	4.5478064E-001	1.042709646297028E-001	1.000000000000000E+000	-2.1077600E-005	12	4.7420417E-005
2	1	0	1	0	5.818999852999696E-001	4.5860499E-001	4.5881850E-001	1.037400809598493E-001	1.000000000000000E+000	-2.0869609E-005	12	4.7597867E-005
2	1	0	1	0	5.838999852494453E-001	4.6253401E-001	4.6274599E-001	1.034361600904958E-001	1.000000000000000E+000	-2.0662457E-005	12	4.7864669E-005
2	1	0	1	0	5.858999851989211E-001	4.6653536E-001	4.6673396E-001	1.031926001968615E-001	1.000000000000000E+000	-2.0455867E-005	12	4.8163492E-005
2	1	0	1	0	5.878999851483968E-001	4.7053662E-001	4.7073150E-001	1.028925667035059E-001	1.000000000000000E+000	-2.0249803E-005	12	4.8434773E-005
2	1	0	1	0	5.898999850978726E-001	4.7453791E-001	4.7472697E-001	1.025907626268843E-001	1.000000000000000E+000	-2.0044357E-005	12	4.8702601E-005
2	1	0	1	0	5.918999850473483E-001	4.7853926E-001	4.7872025E-001	1.022967222492706E-001	1.000000000000000E+000	-1.9839525E-005	12	4.8971513E-005
2	1	0	1	0	5.938999849968241E-001	4.8254052E-001	4.8270187E-001	1.020644629024901E-001	1.000000000000000E+000	-1.9635187E-005	12	4.9266706E-005
2	1	0	1	0	5.958999849462998E-001	4.8654181E-001	4.8673123E-001	1.018554950440178E-001	1.000000000000000E+000	-1.9431272E-005	12	4.9576251E-005
2	1	0	1	0	5.978999848957756E-001	4.9054313E-001	4.9072877E-001	1.015519306092756E-001	1.000000000000000E+000	-1.9227882E-005	12	4.9834453E-005
2	1	0	1	0	5.998999848452513E-001	4.9454439E-001	4.9473795E-001	1.013831998910373E-001	1.000000000000000E+000	-1.9024961E-005	12	5.0158116E-005
2	1	0	1	0	6.016999847997795E-001	4.9814564E-001	4.9828470E-001	1.012428725807690E-001	1.000000000000000E+000	-1.8842617E-005	12	5.0447776E-005
2	1	0	0	0	6.025999847770436E-001	4.9994630E-001	5.0025177E-001	1.011326014995575E-001	1.000000000000000E+000	-1.8751532E-005	12	5.0591763E-005
2	1	0	1	0	6.027999847719911E-001	5.0034642E-001	5.0076735E-001	9.818445891141891E-002	1.000000000000000E+000	-1.8731895E-005	12	4.9167571E-005
2	1	0	0	1	6.031999847618863E-001	4.9994630E-001	5.0028992E-001	9.522680193185806E-002	1.000000000000000E+000	-1.8693805E-005	12	4.7641010E-005
2	1	0	1	1	6.042999847340980E-001	4.9734530E-001	4.9762583E-001	8.257581169406580E-002	1.000000000000000E+000	-1.8602792E-005	12	4.1091858E-005
2	1	0	1	1	6.062999846835737E-001	4.9334401E-001	4.9359113E-001	7.627679936558684E-002	1.000000000000000E+000	-1.8444574E-005	12	3.7649552E-005
2	1	0	1	1	6.082999846330495E-001	4.8934269E-001	4.8962012E-001	7.142078871644743E-002	1.000000000000000E+000	-1.8297389E-005	12	3.4969056E-005
2	1	0	1	1	6.102999845825252E-001	4.8534143E-001	4.8563108E-001	6.738193286906216E-002	1.000000000000000E+000	-1.8159028E-005	12	3.2722761E-005
2	1	0	1	1	6.122999845320010E-001	4.8134014E-001	4.8161867E-001	6.384749797628791E-002	1.000000000000000E+000	-1.8028149E-005	12	3.0750147E-005
2	1	0	1	1	6.142999844814767E-001	4.7733882E-001	4.7758505E-001	6.074546617795321E-002	1.000000000000000E+000	-1.7903873E-005	12	2.9011126E-005
2	1	0	1	1	6.162999844309525E-001	4.7333756E-001	4.7358963E-001	5.788840723592643E-002	1.000000000000000E+000	-1.7785531E-005	12	2.7415350E-005
2	1	0	1	1	6.182999843804282E-001	4.6933624E-001	4.6962816E-001	5.521031296262247E-002	1.000000000000000E+000	-1.7672715E-005	12	2.5928317E-005
2	1	0	1	1	6.202999843299040E-001	4.6533492E-001	4.6557227E-001	5.276201090196597E-002	1.000000000000000E+000	-1.7565006E-005	12	2.4564530E-005
2	1	0	1	1	6.222999842793797E-001	4.6133366E-001	4.6155989E-001	5.045172298236544E-002	1.000000000000000E+000	-1.7462005E-005	12	2.3286491E-005
2	1	0	1	1	6.242999842288555E-001	4.5743239E-001	4.5767272E-001	4.849406621522367E-002	1.000000000000000E+000	-1.7363192E-005	12	2.2194410E-005
2	1	0	1	1	6.262999841783312E-001	4.5343110E-001	4.5363909E-001	4.623425951609117E-002	1.000000000000000E+000	-1.7268721E-005	12	2.0973668E-005
2	1	0	1	1	6.282999841278070E-001	4.4942981E-001	4.4966486E-001	4.424307313375819E-002	1.000000000000000E+000	-1.7178443E-005	12	1.9894554E-005
2	1	0	1	1	6.302999840772827E-001	4.4542849E-001	4.4566411E-001	4.232036550011908E-002	1.000000000000000E+000	-1.7092074E-005	12	1.8860668E-005
2	1	0	1	1	6.322999840267585E-001	4.4142726E-001	4.4163370E-001	4.049472680667854E-002	1.000000000000000E+000	-1.7009450E-005	12	1.7883836E-005
2	1	0	1	1	6.342999839762342E-001	4.3742585E-001	4.3769765E-001	3.876615740874628E-002	1.000000000000000E+000	-1.6930357E-005	12	1.6967855E-005
2	1	0	1	1	6.362999839257100E-001	4.3342459E-001	4.3365771E-001	3.703653453582470E-002	1.000000000000000E+000	-1.6854739E-005	12	1.6061178E-005
2	1	0	1	1	6.382999838751857E-001	4.2942330E-001	4.2967924E-001	3.540044944747939E-002	1.000000000000000E+000	-1.6782453E-005	12	1.5210839E-005
2	1	0	1	1	6.402999838246615E-001	4.2542198E-001	4.2563182E-001	3.386355184476185E-002	1.000000000000000E+000	-1.6713364E-005	12	1.4413406E-005
2	1	0	1	1	6.422999837741372E-001	4.2142072E-001	4.2163008E-001	3.231183059971154E-002	1.000000000000000E+000	-1.6647324E-005	12	1.3623639E-005
2	1	0	1	1	6.442999837236130E-001	4.1741943E-001	4.1762727E-001	3.078976127451619E-002	1.000000000000000E+000	-1.6584370E-005	12	1.2858644E-005
2	1	0	1	1	6.462999836730887E-001	4.1341811E-001	4.1365620E-001	2.932169740072116E-002	1.000000000000000E+000	-1.6524396E-005	12	1.2129102E-005
2	1	0	1	1	6.482999836225645E-001	4.0941685E-001	4.0964913E-001	2.793129038966286E-002	1.000000000000000E+000	-1.6467255E-005	12	1.1442029E-005
2	1	0	1	1	6.502999835720402E-001	4.0541556E-001	4.0565690E-001	2.653241126487652E-002	1.000000000000000E+000	-1.6412931E-005	12	1.0763056E-005
2	1	0	1	1	6.522999835215160E-001	4.0141425E-001	4.0164769E-001	2.516141693639740E-002	1.000000000000000E+000	-1.6361382E-005	12	1.0106025E-005
2	1	0	1	1	6.542999834709917E-001	3.9741296E-001	3.9767131E-001	2.384972530934548E-002	1.000000000000000E+000	-1.6312481E-005	12	9.4843517E-006
2	1	0	1	1	6.562999834204675E-001	3.9341164E-001	3.9361969E-001	2.253379847469562E-002	1.000000000000000E+000	-1.6266235E-005	12	8.8697470E-006
2	1	0	1	1	6.582999833699432E-001	3.8941032E-001	3.8962960E-001	2.121822473903495E-002	1.000000000000000E+000	-1.6222608E-005	12	8.2672486E-006
2	1	0	1	1	6.602999833194190E-001	3.8540906E-001	3.8564372E-001	1.993936097884833E-002	1.000000000000000E+000	-1.6181595E-005	12	7.6894894E-006
2	1	0	1	1	6.622999832688947E-001	3.8140774E-001	3.8164937E-001	1.865378941955802E-002	1.000000000000000E+000	-1.6143116E-005	12	7.1192071E-006
2	1	0	1	1	6.642999832183705E-001	3.7740645E-001	3.7762317E-001	1.735974656225557E-002	1.000000000000000E+000	-1.6107268E-005	12	6.5554427E-006
2	1	0	1	1	6.662999831678462E-001	3.7340519E-001	3.7365004E-001	1.612359427943177E-002	1.000000000000000E+000	-1.6073907E-005	12	6.0245816E-006
2	1	0	1	1	6.682999831173220E-001	3.6940387E-001	3.6958882E-001	1.486167328867949E-002	1.000000000000000E+000	-1.6043048E-005	12	5.4927082E-006
2	1	0	1	1	6.702999830667977E-001	3.6540258E-001	3.6562422E-001	1.361140084999432E-002	1.000000000000000E+000	-1.6014686E-005	12	4.9766577E-006
2	1	0	1	1	6.722999830162735E-001	3.6140129E-001	3.6163619E-001	1.240030937111042E-002	1.000000000000000E+000	-1.5988804E-005	12	4.4844005E-006
2	1	0	1	1	6.742999829657492E-001	3.5740000E-001	3.5764399E-001	1.112956417354222E-002	1.000000000000000E+000	-1.5965397E-005	12	3.9804218E-006
2	1	0	1	1	6.762999829152250E-001	3.5339868E-001	3.5365281E-001	9.815754718955627E-003	1.000000000000000E+000	-1.5944608E-005	12	3.4713692E-006
2	1	0	1	1	6.782999828647007E-001	3.4939742E-001	3.4961385E-001	8.571130332408472E-003	1.000000000000000E+000	-1.5926311E-005	12	2.9965859E-006
2	1	0	1	1	6.802999828141765E-001	3.4539610E-001	3.4561631E-001	7.279911857646468E-003	1.000000000000000E+000	-1.5910555E-005	12	2.5160564E-006
2	1	0	1	1	6.822999827636522E-001	3.4139478E-001	3.4161773E-001	5.984104235418891E-003	1.000000000000000E+000	-1.5897434E-005	12	2.0442760E-006
2	1	0	1	1	6.842999827131280E-001	3.3739349E-001	3.3766052E-001	4.614522948082192E-003	1.000000000000000E+000	-1.5886959E-005	12	1.5581422E-006
2	1	0	1	1	6.862999826626037E-001	3.3339217E-001	3.3365020E-001	3.316950863690077E-003	1.000000000000000E+000	-1.5879146E-005	12	1.1067013E-006
2	1	0	1	1	6.882999826120795E-001	3.2939091E-001	3.2960814E-001	1.896539897037048E-003	1.000000000000000E+000	-1.5874071E-005	12	6.2511498E-007
2	1	0	1	1	6.902999825615552E-001	3.2538962E-001	3.2561484E-001	4.517729039055993E-004	1.000000000000000E+000	-1.5871841E-005	12	1.4710396E-007
2	0	0	1	1	6.922999825110310E-001	3.2138833E-001	3.2161725E-001	-1.025821802519053E-003	1.000000000000000E+000	-1.5872556E-005	12	-3.2992199E-007
2	0	0	1	1	6.942999824605067E-001	3.1738704E-001	3.1757835E-001	-2.551069379857530E-003	1.000000000000000E+000	-1.5876249E-005	12	-8.1016441E-007
2	0	0	1	1	6.962999824099825E-001	3.1338575E-001	3.1363598E-001	-4.159974325375522E-003	1.000000000000000E+000	-1.5883123E-005	12	-1.3047176E-006
2	0	0	1	1	6.982999823594582E-001	3.0938444E-001	3.0962145E-001	-5.774174213507233E-003	1.000000000000000E+000	-1.5893209E-005	12	-1.7878082E-006
2	0	0	1	1	7.002999823089340E-001	3.0538315E-001	3.0557406E-001	-7.469913588970950E-003	1.000000000000000E+000	-1.5906622E-005	12	-2.2826118E-006
2	0	0	1	1	7.022999822584097E-001	3.0138186E-001	3.0158186E-001	-9.273666256174484E-003	1.000000000000000E+000	-1.5923555E-005	12	-2.7967694E-006
2	0	0	1	1	7.042999822078855E-001	2.9738057E-001	2.9765326E-001	-1.116495960074336E-002	1.000000000000000E+000	-1.5944172E-005	12	-3.3232866E-006
2	0	0	1	1	7.062999821573612E-001	2.9337928E-001	2.9361856E-001	-1.313143734680328E-002	1.000000000000000E+000	-1.5968633E-005	12	-3.8556336E-006
2	0	0	1	1	7.082999821068370E-001	2.8937799E-001	2.8964332E-001	-1.525923073919937E-002	1.000000000000000E+000	-1.5997253E-005	12	-4.4197341E-006
2	0	0	1	1	7.102999820563127E-001	2.8537667E-001	2.8561500E-001	-1.746715252354784E-002	1.000000000000000E+000	-1.6030193E-005	12	-4.9888808E-006
2	0	0	1	1	7.122999820057885E-001	2.8137535E-001	2.8162491E-001	-1.981979514473819E-002	1.000000000000000E+000	-1.6067694E-005	12	-5.5817482E-006
2	0	0	1	1	7.142999819552642E-001	2.7737409E-001	2.7762309E-001	-2.235634439906179E-002	1.000000000000000E+000	-1.6110131E-005	12	-6.2066374E-006
2	0	0	1	1	7.162999819047400E-001	2.7337277E-001	2.7363300E-001	-2.500020109073373E-002	1.000000000000000E+000	-1.6157735E-005	12	-6.8408799E-006
2	0	0	1	1	7.182999818542157E-001	2.6937148E-001	2.6959941E-001	-2.769735914464244E-002	1.000000000000000E+000	-1.6210697E-005	12	-7.4671916E-006
2	0	0	1	1	7.202999818036915E-001	2.6537022E-001	2.6558274E-001	-3.073832303198282E-002	1.000000000000000E+000	-1.6269423E-005	12	-8.1635681E-006
2	0	0	1	1	7.222999817531672E-001	2.6136890E-001	2.6157567E-001	-3.389612537203995E-002	1.000000000000000E+000	-1.6334354E-005	12	-8.8664019E-006
2	0	0	1	1	7.242999817026430E-001	2.5736761E-001	2.5761101E-001	-3.718065180712271E-002	1.000000000000000E+000	-1.6405775E-005	12	-9.5781452E-006
2	0	0	1	1	7.262999816521187E-001	2.5336629E-001	2.5363785E-001	-4.069426235138152E-002	1.000000000000000E+000	-1.6483986E-005	12	-1.0321605E-005
2	0	0	1	1	7.282999816015945E-001	2.4936502E-001	2.4959791E-001	-4.443801679574078E-002	1.000000000000000E+000	-1.6569486E-005	12	-1.1091636E-005
2	0	0	1	1	7.302999815510702E-001	2.4536373E-001	2.4556428E-001	-4.829402541832273E-002	1.000000000000000E+000	-1.6662578E-005	12	-1.1859288E-005
2	0	0	1	1	7.322999815005460E-001	2.4136244E-001	2.4160919E-001	-5.235476561776731E-002	1.000000000000000E+000	-1.6763646E-005	12	-1.2649392E-005
2	0	0	1	1	7.342999814500217E-001	2.3736113E-001	2.3762648E-001	-5.664070647536490E-002	1.000000000000000E+000	-1.6873046E-005	12	-1.3459332E-005
2	0	0	1	1	7.362999813994975E-001	2.3335983E-001	2.3360772E-001	-6.100677499166030E-002	1.000000000000000E+000	-1.6991107E-005	12	-1.4251654E-005
2	0	0	1	1	7.382999813489732E-001	2.2935852E-001	2.2957940E-001	-6.554863514854020E-002	1.000000000000000E+000	-1.7118098E-005	12	-1.5048617E-005
2	0	0	1	1	7.402999812984490E-001	2.2535723E-001	2.2557868E-001	-7.027192961605677E-002	1.000000000000000E+000	-1.7254379E-005	12	-1.5851849E-005
2	0	0	1	1	7.422999812479247E-001	2.2135594E-001	2.2157903E-001	-7.506439825697775E-002	1.000000000000000E+000	-1.7400162E-005	12	-1.6632697E-005
2	0	0	1	1	7.442999811974005E-001	2.1735466E-001	2.1762393E-001	-7.991476260778807E-002	1.000000000000000E+000	-1.7555618E-005	12	-1.7391365E-005
2	0	0	1	1	7.462999811468762E-001	2.1335337E-001	2.1358287E-001	-8.490350161931320E-002	1.000000000000000E+000	-1.7720917E-005	12	-1.8133935E-005
2	0	0	1	1	7.482999810963520E-001	2.0935205E-001	2.0957686E-001	-8.990882502661768E-002	1.000000000000000E+000	-1.7896244E-005	12	-1.8842809E-005
2	0	0	1	1	7.502999810458277E-001	2.0535076E-001	2.0557931E-001	-9.476730452701698E-002	1.000000000000000E+000	-1.8081426E-005	12	-1.9482197E-005
2	0	0	1	1	7.522999809953035E-001	2.0134947E-001	2.0157433E-001	-9.972144888565215E-002	1.000000000000000E+000	-1.8276394E-005	12	-2.0101284E-005
2	0	0	1	1	7.542999809447792E-001	1.9734818E-001	1.9755241E-001	-1.045827557956931E-001	1.000000000000000E+000	-1.8481178E-005	12	-2.0660576E-005
2	0	0	1	1	7.562999808942550E-001	1.9334689E-001	1.9357927E-001	-1.092220406394011E-001	1.000000000000000E+000	-1.8695471E-005	12	-2.1143123E-005
2	0	0	1	1	7.582999808437307E-001	1.8934558E-001	1.8959975E-001	-1.138500202861096E-001	1.000000000000000E+000	-1.8918987E-005	12	-2.1585936E-005
2	0	0	1	1	7.602999807932065E-001	1.8534428E-001	1.8558949E-001	-1.182912771700004E-001	1.000000000000000E+000	-1.9151586E-005	12	-2.1953618E-005
2	0	0	1	1	7.622999807426822E-001	1.8134297E-001	1.8159619E-001	-1.224236720623189E-001	1.000000000000000E+000	-1.9392719E-005	12	-2.2231672E-005
2	0	0	1	1	7.642999806921580E-001	1.7734170E-001	1.7759652E-001	-1.263188700023521E-001	1.000000000000000E+000	-1.9641877E-005	12	-2.2433793E-005
2	0	0	1	1	7.662999806416337E-001	1.7334040E-001	1.7358732E-001	-1.300421517242079E-001	1.000000000000000E+000	-1.9898605E-005	12	-2.2573669E-005
2	0	0	1	1	7.682999805911095E-001	1.6933911E-001	1.6953886E-001	-1.333132534362243E-001	1.000000000000000E+000	-2.0162277E-005	12	-2.2601776E-005
2	0	0	1	1	7.702999805405852E-001	1.6533782E-001	1.6561452E-001	-1.363175107544521E-001	1.000000000000000E+000	-2.0432224E-005	12	-2.2576158E-005
2	0	0	1	1	7.722999804900610E-001	1.6133651E-001	1.6159682E-001	-1.390813817350947E-001	1.000000000000000E+000	-2.0707912E-005	12	-2.2475109E-005
2	0	0	1	1	7.742999804395367E-001	1.5733524E-001	1.5755153E-001	-1.414283747758929E-001	1.000000000000000E+000	-2.0988651E-005	12	-2.2282256E-005
2	0	0	1	1	7.762999803890125E-001	1.5333392E-001	1.5355715E-001	-1.434012126361868E-001	1.000000000000000E+000	-2.1273663E-005	12	-2.2020282E-005
2	0	0	1	1	7.782999803384882E-001	1.4941600E-001	1.4966254E-001	-1.447965547785217E-001	1.000000000000000E+000	-2.1562075E-005	12	-2.1670619E-005
2	0	0	1	1	7.802999802879640E-001	1.4543138E-001	1.4563529E-001	-1.463542804235156E-001	1.000000000000000E+000	-2.1853353E-005	12	-2.1314348E-005
2	0	0	1	1	7.822999802374397E-001	1.4143007E-001	1.4164305E-001	-1.474319487751927E-001	1.000000000000000E+000	-2.2147269E-005	12	-2.0882711E-005
2	0	0	1	1	7.842999801869155E-001	1.3742878E-001	1.3768476E-001	-1.482798139881603E-001	1.000000000000000E+000	-2.2443095E-005	12	-2.0415871E-005
2	0	0	1	1	7.862999801363912E-001	1.3342747E-001	1.3367343E-001	-1.488590714175693E-001	1.000000000000000E+000	-2.2740311E-005	12	-1.9898502E-005
2	0	0	1	1	7.882999800858670E-001	1.2942618E-001	1.2964618E-001	-1.490920289151192E-001	1.000000000000000E+000	-2.3038299E-005	12	-1.9329213E-005
2	0	0	1	1	7.902999800353427E-001	1.2542489E-001	1.2562425E-001	-1.492537017184077E-001	1.000000000000000E+000	-2.3336663E-005	12	-1.8749884E-005
2	0	0	1	1	7.922999799848185E-001	1.2142359E-001	1.2165854E-001	-1.491965160401176E-001	1.000000000000000E+000	-2.3635121E-005	12	-1.8151031E-005
2	0	0	1	1	7.942999799342942E-001	1.1742230E-001	1.1764615E-001	-1.489060156988367E-001	1.000000000000000E+000	-2.3933191E-005	12	-1.7518219E-005
2	0	0	1	1	7.962999798837700E-001	1.1342100E-001	1.1366664E-001	-1.485424420841612E-001	1.000000000000000E+000	-2.4230590E-005	12	-1.6884320E-005
2	0	0	1	1	7.982999798332457E-001	1.0941971E-001	1.0962452E-001	-1.480927361553768E-001	1.000000000000000E+000	-2.4527177E-005	12	-1.6234595E-005
2	0	0	1	1	8.002999797827215E-001	1.0541841E-001	1.0564397E-001	-1.474347709752486E-001	1.000000000000000E+000	-2.4822644E-005	12	-1.5575593E-005
2	0	0	1	1	8.022999797321972E-001	1.0141712E-001	1.0161778E-001	-1.467634001682096E-001	1.000000000000000E+000	-2.5116753E-005	12	-1.4913771E-005
2	0	0	1	1	8.042999796816730E-001	9.7415827E-002	9.7658433E-002	-1.460782510225220E-001	1.000000000000000E+000	-2.5409541E-005	12	-1.4265773E-005
2	0	0	1	1	8.062999796311487E-001	9.3414523E-002	9.3623757E-002	-1.452501497276701E-001	1.000000000000000E+000	-2.5700769E-005	12	-1.3598865E-005
2	0	0	1	1	8.082999795806245E-001	8.9413233E-002	8.9673959E-002	-1.445092336426677E-001	1.000000000000000E+000	-2.5990457E-005	12	-1.2958715E-005
2	0	0	1	1	8.102999795301002E-001	8.5411936E-002	8.5608512E-002	-1.437347816552369E-001	1.000000000000000E+000	-2.6278609E-005	12	-1.2304921E-005
2	0	0	1	1	8.122999794795760E-001	8.1410646E-002	8.1633255E-002	-1.428826770505915E-001	1.000000000000000E+000	-2.6565131E-005	12	-1.1663978E-005
2	0	0	1	1	8.142999794290517E-001	7.7409342E-002	7.7653751E-002	-1.420806925129401E-001	1.000000000000000E+000	-2.6850032E-005	12	-1.1033098E-005
2	0	0	1	1	8.162999793785275E-001	7.3408052E-002	7.3659390E-002	-1.413030732122329E-001	1.000000000000000E+000	-2.7133345E-005	12	-1.0408298E-005
2	0	0	1	1	8.182999793280032E-001	6.9406755E-002	6.9617294E-002	-1.405314399307831E-001	1.000000000000000E+000	-2.7415099E-005	12	-9.7834181E-006
2	0	0	1	1	8.202999792774790E-001	6.5405458E-002	6.5617621E-002	-1.396955693247338E-001	1.000000000000000E+000	-2.7695231E-005	12	-9.1664906E-006
2	0	0	1	1	8.222999792269547E-001	6.1404165E-002	6.1667830E-002	-1.389754916745001E-001	1.000000000000000E+000	-2.7973816E-005	12	-8.5703168E-006
2	0	0	1	1	8.242999791764305E-001	5.7402868E-002	5.7627853E-002	-1.382815268476003E-001	1.000000000000000E+000	-2.8251015E-005	12	-7.9688671E-006
2	0	0	1	1	8.262999791259062E-001	5.3401571E-002	5.3608026E-002	-1.375342513638311E-001	1.000000000000000E+000	-2.8526762E-005	12	-7.3729398E-006
2	0	0	1	1	8.282999790753820E-001	4.9400277E-002	4.9609430E-002	-1.368702932506696E-001	1.000000000000000E+000	-2.8801102E-005	12	-6.7900573E-006
2	0	0	1	1	8.302999790248577E-001	4.5398984E-002	4.5649014E-002	-1.362518542171329E-001	1.000000000000000E+000	-2.9074134E-005	12	-6.2197628E-006
2	0	0	1	1	8.322999789743335E-001	4.1397687E-002	4.1593127E-002	-1.355917774797286E-001	1.000000000000000E+000	-2.9345927E-005	12	-5.6396862E-006
2	0	0	1	1	8.342999789238092E-001	3.7396390E-002	3.7676215E-002	-1.349839291296018E-001	1.000000000000000E+000	-2.9616431E-005	12	-5.0856834E-006
2	0	0	1	1	8.362999788732850E-001	3.3395093E-002	3.3602286E-002	-1.345010547973086E-001	1.000000000000000E+000	-2.9885869E-005	12	-4.5195429E-006
2	0	0	1	1	8.382999788227608E-001	2.9393803E-002	2.9639756E-002	-1.339595727250629E-001	1.000000000000000E+000	-3.0154260E-005	12	-3.9705292E-006
2	0	0	1	1	8.402999787722365E-001	2.5392506E-002	2.5632663E-002	-1.333626668800001E-001	1.000000000000000E+000	-3.0421505E-005	12	-3.4184402E-006
2	0	0	1	1	8.422999787217123E-001	2.1391211E-002	2.1603297E-002	-1.330012248622048E-001	1.000000000000000E+000	-3.0687839E-005	12	-2.8732650E-006
2	0	0	1	1	8.442999786711880E-001	1.7389916E-002	1.7595146E-002	-1.325183382949842E-001	1.000000000000000E+000	-3.0953313E-005	12	-2.3316795E-006
2	0	0	1	1	8.462999786206638E-001	1.3388619E-002	1.3609276E-002	-1.320227522616427E-001	1.000000000000000E+000	-3.1217787E-005	12	-1.7967341E-006
2	0	0	1	1	8.482999785701395E-001	9.3873246E-003	9.6021853E-003	-1.317452930056278E-001	1.000000000000000E+000	-3.1481522E-005	12	-1.2650427E-006
2	0	0	1	1	8.502999785196153E-001	5.3860289E-003	5.6046438E-003	-1.313386533794176E-001	1.000000000000000E+000	-3.1744559E-005	12	-7.3610636E-007
2	0	0	1	1	8.519999784766696E-001	1.9849280E-003	2.1518848E-003	-1.309987450125238E-001	1.000000000000000E+000	-3.1967564E-005	12	-2.8189422E-007
2	0	0	0	1	8.527999784564599E-001	3.8440974E-004	5.5255031E-004	-1.307911723852158E-001	1.000000000000000E+000	-3.2072308E-005	12	-7.2268705E-008
2	0	0	1	1	8.529999784514075E-001	-1.5719925E-005	1.1332984E-004	-1.310071945190430E-001	1.000000000000000E+000	-3.2098513E-005	12	-1.4847024E-008