EC-Lab ASCII FILE
Nb header lines : 59                          

Cyclic Voltammetry

Run on channel : 5 (SN 39658)
User : 
CE vs. WE compliance from -10 V to 10 V
Electrode connection : standard
Potential control : Ewe
Ewe ctrl range : min = -2.50 V, max = 2.50 V
Safety Limits :
	Do not start on E overload
Acquisition started on : 02/10/2025 13:02:30.166
Loaded Setting File :  NONE
Saved on :
	File : 2025-02-10 exp 10 CV 10000mvs_C05.mpr
	Directory : C:\Users\thefo\OneDrive\Documents\EC-Lab\Data\CHEM 451\
	Host : 172.24.113.132
Device : VSP (SN 1910)
Address : USB
EC-Lab for windows v11.46 (software)
Internet server v11.40 (firmware)
Command interpretor v11.40 (firmware)
Electrode material : Au/Pd
Initial state : 
Electrolyte : NaCl (0.2M)
Comments : Fe(CN)63-/Fe(CN)64- 5.10-3 M
Current amplifier : VSPB-4A
Reference electrode : SCE Saturated Calomel Electrode (0.241 V)
Electrode surface area : 0.001 cm²
Characteristic mass : 0.001 g
Equivalent Weight : 0.000 g/eq.
Density : 0.000 g/cm3
Volume (V) : 0.001 cm³
Cycle Definition : Charge/Discharge alternance
Ei (V)              0.000               
vs.                 Eoc                 
dE/dt               10.000              
dE/dt unit          V/s                 
E1 (V)              -0.200              
vs.                 Ref                 
Step percent        50                  
N                   10                  
E range min (V)     -2.500              
E range max (V)     2.500               
I Range             1 mA                
I Range min         Unset               
I Range max         Unset               
I Range init        Unset               
Bandwidth           4                   
E2 (V)              0.500               
vs.                 Ref                 
nc cycles           0                   
Reverse Scan        1                   
Ef (V)              0.000               
vs.                 Ref                 

mode	ox/red	error	control changes	counter inc.	time/s	control/V	Ewe/V	<I>/mA	cycle number	(Q-Qo)/C	I Range	P/W	
2	1	0	0	0	0.000000000000000E+000	2.9157877E-001	2.9177481E-001	7.019628537818789E-005	1.000000000000000E+000	0.0000000E+000	12	2.0481508E-008
2	0	0	1	0	1.099999972211663E-003	2.8057513E-001	2.8111354E-001	-4.053824150549989E-002	1.000000000000000E+000	-4.1327485E-008	12	-1.1395849E-005
2	0	0	1	0	3.099999921687413E-003	2.6056865E-001	2.6102185E-001	-7.182434769735357E-002	1.000000000000000E+000	-1.5758802E-007	12	-1.8747724E-005
2	0	0	1	0	5.099999871163163E-003	2.4056216E-001	2.4101186E-001	-1.024934412190406E-001	1.000000000000000E+000	-3.3488942E-007	12	-2.4702134E-005
2	0	0	1	0	7.099999820638914E-003	2.2055569E-001	2.2106554E-001	-1.374234149196933E-001	1.000000000000000E+000	-5.7810695E-007	12	-3.0379580E-005
2	0	0	1	0	9.099999770114664E-003	2.0054922E-001	2.0108737E-001	-1.769608968461400E-001	1.000000000000000E+000	-8.9631436E-007	12	-3.5584602E-005
2	0	0	1	0	1.109999971959041E-002	1.8054274E-001	1.8104769E-001	-2.190388115543302E-001	1.000000000000000E+000	-1.2964690E-006	12	-3.9656472E-005
2	0	0	1	0	1.309999966906616E-002	1.6053624E-001	1.6105470E-001	-2.599776670621287E-001	1.000000000000000E+000	-1.7796668E-006	12	-4.1870626E-005
2	0	0	1	0	1.509999961854192E-002	1.4055757E-001	1.4102454E-001	-2.952549632593398E-001	1.000000000000000E+000	-2.3386735E-006	12	-4.1638195E-005
2	0	0	1	0	1.709999956801767E-002	1.2062334E-001	1.2102411E-001	-3.218876576283956E-001	1.000000000000000E+000	-2.9587452E-006	12	-3.8956168E-005
2	0	0	1	0	1.909999951749342E-002	1.0061685E-001	1.0100669E-001	-3.390346097876322E-001	1.000000000000000E+000	-3.6217020E-006	12	-3.4244764E-005
2	0	0	1	0	2.109999946696917E-002	8.0610387E-002	8.1010491E-002	-3.475288298278532E-001	1.000000000000000E+000	-4.3093464E-006	12	-2.8153481E-005
2	0	0	1	0	2.309999941644492E-002	6.0603905E-002	6.0981411E-002	-3.501006938943947E-001	1.000000000000000E+000	-5.0074177E-006	12	-2.1349635E-005
2	0	0	1	0	2.509999936592067E-002	4.0597428E-002	4.0903527E-002	-3.490251231123693E-001	1.000000000000000E+000	-5.7065031E-006	12	-1.4276358E-005
2	0	0	1	0	2.709999931539642E-002	2.0590950E-002	2.0896725E-002	-3.463918642179742E-001	1.000000000000000E+000	-6.4016999E-006	12	-7.2384555E-006
2	0	0	1	0	2.909999926487217E-002	5.8447418E-004	9.0371358E-004	-3.436579866425342E-001	1.000000000000000E+000	-7.0914734E-006	12	-3.1056840E-007
2	0	0	1	0	3.109999921434792E-002	-1.9422011E-002	-1.9157205E-002	-3.409816794123293E-001	1.000000000000000E+000	-7.7758468E-006	12	6.5322561E-006
2	0	0	1	0	3.309999916382367E-002	-3.9428495E-002	-3.9153408E-002	-3.389714128441286E-001	1.000000000000000E+000	-8.4555704E-006	12	1.3271886E-005
2	0	0	1	0	3.509999911329942E-002	-5.9434980E-002	-5.9157036E-002	-3.376473512228884E-001	1.000000000000000E+000	-9.1320044E-006	12	1.9974217E-005
2	0	0	1	0	3.709999906277517E-002	-7.9441473E-002	-7.9170212E-002	-3.371157802499116E-001	1.000000000000000E+000	-9.8066876E-006	12	2.6689528E-005
2	0	0	1	0	3.909999901225092E-002	-9.9447951E-002	-9.9195063E-002	-3.372873270418495E-001	1.000000000000000E+000	-1.0481044E-005	12	3.3457236E-005
2	0	0	1	0	4.109999896172667E-002	-1.1945444E-001	-1.1921673E-001	-3.380540151588836E-001	1.000000000000000E+000	-1.1156440E-005	12	4.0301693E-005
2	0	0	1	0	4.309999891120242E-002	-1.3946094E-001	-1.3916732E-001	-3.395019545181035E-001	1.000000000000000E+000	-1.1834081E-005	12	4.7247577E-005
2	0	0	1	0	4.509999886067817E-002	-1.5946741E-001	-1.5920596E-001	-3.414052550021252E-001	1.000000000000000E+000	-1.2515172E-005	12	5.4353750E-005
2	0	0	1	0	4.709999881015392E-002	-1.7937942E-001	-1.7908546E-001	-3.435457455472921E-001	1.000000000000000E+000	-1.3200351E-005	12	6.1524050E-005
2	0	0	1	0	4.849999877478695E-002	-1.9337840E-001	-1.9311504E-001	-3.455810822973342E-001	1.000000000000000E+000	-1.3682390E-005	12	6.6736902E-005
2	0	0	1	0	4.899999876215588E-002	-1.9837998E-001	-1.9801326E-001	-3.464303016662598E-001	1.000000000000000E+000	-1.3855409E-005	12	6.8597794E-005
2	0	0	0	0	4.919999875710346E-002	-2.0038064E-001	-2.0007570E-001	-3.468751013278961E-001	1.000000000000000E+000	-1.3924783E-005	12	6.9401278E-005
2	0	0	1	0	4.939999875205103E-002	-1.9837998E-001	-2.0013298E-001	-3.172857761383057E-001	1.000000000000000E+000	-1.3988240E-005	12	6.3499348E-005
2	0	0	1	0	5.049999872426270E-002	-1.8737647E-001	-1.8767571E-001	-2.422920402152342E-001	1.000000000000000E+000	-1.4259218E-005	12	4.5472330E-005
2	0	0	1	0	5.249999867373845E-002	-1.6744223E-001	-1.6756599E-001	-1.946930914774483E-001	1.000000000000000E+000	-1.4690021E-005	12	3.2623939E-005
2	0	0	1	0	5.449999862321420E-002	-1.4746353E-001	-1.4756766E-001	-1.632802575768437E-001	1.000000000000000E+000	-1.5044515E-005	12	2.4094885E-005
2	0	0	1	0	5.649999857268995E-002	-1.2745704E-001	-1.2757571E-001	-1.389776079191090E-001	1.000000000000000E+000	-1.5344171E-005	12	1.7730166E-005
2	0	0	1	0	5.849999852216570E-002	-1.0745054E-001	-1.0751798E-001	-1.187847530818542E-001	1.000000000000000E+000	-1.5599771E-005	12	1.2771497E-005
2	0	0	1	0	6.049999847164145E-002	-8.7444060E-002	-8.7572694E-002	-1.012706990699777E-001	1.000000000000000E+000	-1.5818039E-005	12	8.8685483E-006
2	0	0	1	0	6.249999842111720E-002	-6.7437582E-002	-6.7524500E-002	-8.565182303330665E-002	1.000000000000000E+000	-1.6003311E-005	12	5.7835964E-006
2	0	0	1	0	6.449999837059295E-002	-4.7431096E-002	-4.7509208E-002	-7.148901838162525E-002	1.000000000000000E+000	-1.6159001E-005	12	3.3963868E-006
2	0	0	1	0	6.649999832006870E-002	-2.7424606E-002	-2.7484361E-002	-5.855776542416113E-002	1.000000000000000E+000	-1.6287710E-005	12	1.6094227E-006
2	0	0	1	0	6.849999826954445E-002	-7.4181203E-003	-7.4722427E-003	-4.607940023884605E-002	1.000000000000000E+000	-1.6391081E-005	12	3.4431648E-007
2	0	0	1	0	7.049999821902020E-002	1.2588361E-002	1.2572758E-002	-3.456361996601717E-002	1.000000000000000E+000	-1.6470525E-005	12	-4.3456004E-007
2	0	0	1	0	7.249999816849595E-002	3.2594837E-002	3.2613512E-002	-2.327163432548529E-002	1.000000000000000E+000	-1.6527196E-005	12	-7.5896975E-007
2	0	0	1	0	7.449999811797170E-002	5.2601315E-002	5.2636225E-002	-1.198353104246058E-002	1.000000000000000E+000	-1.6561346E-005	12	-6.3076783E-007
2	0	0	1	0	7.649999806744745E-002	7.2607793E-002	7.2657883E-002	-5.852966068573551E-004	1.000000000000000E+000	-1.6572747E-005	12	-4.2526413E-008
2	1	0	1	0	7.849999801692320E-002	9.2614271E-002	9.2626497E-002	1.175787704818906E-002	1.000000000000000E+000	-1.6560381E-005	12	1.0890909E-006
2	1	0	1	0	8.049999796639895E-002	1.1262074E-001	1.1261634E-001	2.537320956616893E-002	1.000000000000000E+000	-1.6521923E-005	12	2.8574379E-006
2	1	0	1	0	8.249999791587470E-002	1.3259944E-001	1.3258810E-001	4.100796607720758E-002	1.000000000000000E+000	-1.6454058E-005	12	5.4371685E-006
2	1	0	1	0	8.449999786535045E-002	1.5253367E-001	1.5248777E-001	5.983476579988034E-002	1.000000000000000E+000	-1.6351429E-005	12	9.1240699E-006
2	1	0	1	0	8.649999781482620E-002	1.7254014E-001	1.7250517E-001	8.265912026399769E-002	1.000000000000000E+000	-1.6206775E-005	12	1.4259125E-005
2	1	0	1	0	8.849999776430195E-002	1.9254664E-001	1.9249818E-001	1.097669405927364E-001	1.000000000000000E+000	-1.6011803E-005	12	2.1129936E-005
2	1	0	1	0	9.049999771377770E-002	2.1255308E-001	2.1242116E-001	1.408638474014072E-001	1.000000000000000E+000	-1.5758184E-005	12	2.9922463E-005
2	1	0	1	0	9.249999766325345E-002	2.3255958E-001	2.3247571E-001	1.743363335101291E-001	1.000000000000000E+000	-1.5439713E-005	12	4.0528965E-005
2	1	0	1	0	9.449999761272920E-002	2.5256604E-001	2.5249419E-001	2.075977622492547E-001	1.000000000000000E+000	-1.5054409E-005	12	5.2417228E-005
2	1	0	1	0	9.649999756220495E-002	2.7257255E-001	2.7254346E-001	2.375749973159849E-001	1.000000000000000E+000	-1.4606104E-005	12	6.4749511E-005
2	1	0	1	0	9.849999751168070E-002	2.9257900E-001	2.9257673E-001	2.610982630673482E-001	1.000000000000000E+000	-1.4104862E-005	12	7.6391276E-005
2	1	0	1	0	1.004999974611565E-001	3.1258547E-001	3.1258249E-001	2.765067602255531E-001	1.000000000000000E+000	-1.3565435E-005	12	8.6431173E-005
2	1	0	1	0	1.024999974106322E-001	3.3259195E-001	3.3259356E-001	2.837775380790446E-001	1.000000000000000E+000	-1.3004212E-005	12	9.4382580E-005
2	1	0	1	0	1.044999973601080E-001	3.5259840E-001	3.5265553E-001	2.841336999360169E-001	1.000000000000000E+000	-1.2436035E-005	12	1.0020132E-004
2	1	0	1	0	1.064999973095837E-001	3.7260491E-001	3.7270367E-001	2.800069281883113E-001	1.000000000000000E+000	-1.1872207E-005	12	1.0435961E-004
2	1	0	1	0	1.084999972590595E-001	3.9261138E-001	3.9268821E-001	2.735776671163173E-001	1.000000000000000E+000	-1.1319185E-005	12	1.0743073E-004
2	1	0	1	0	1.104999972085352E-001	4.1261789E-001	4.1271943E-001	2.665247000954378E-001	1.000000000000000E+000	-1.0779774E-005	12	1.0999992E-004
2	1	0	1	0	1.124999971580110E-001	4.3262434E-001	4.3272409E-001	2.600050643830194E-001	1.000000000000000E+000	-1.0253878E-005	12	1.1251045E-004
2	1	0	1	0	1.144999971074867E-001	4.5254746E-001	4.5259300E-001	2.542432850006865E-001	1.000000000000000E+000	-9.7401798E-006	12	1.1506873E-004
2	1	0	1	0	1.164999970569625E-001	4.7253728E-001	4.7264540E-001	2.500293515137555E-001	1.000000000000000E+000	-9.2363744E-006	12	1.1817522E-004
2	1	0	1	0	1.182999970114906E-001	4.9054316E-001	4.9064338E-001	2.471485225292529E-001	1.000000000000000E+000	-8.7889639E-006	12	1.2126179E-004
2	1	0	0	0	1.191999969887547E-001	4.9954617E-001	4.9967885E-001	2.460484355688095E-001	1.000000000000000E+000	-8.5668362E-006	12	1.2294520E-004
2	1	0	1	0	1.193999969837023E-001	5.0154680E-001	5.0250512E-001	2.310663312673569E-001	1.000000000000000E+000	-8.5206220E-006	12	1.1611202E-004
2	1	0	0	1	1.197999969735974E-001	4.9954617E-001	5.0116837E-001	2.157125324010849E-001	1.000000000000000E+000	-8.4343374E-006	12	1.0810830E-004
2	1	0	1	1	1.208999969458091E-001	4.8654178E-001	4.8703679E-001	1.491166348601436E-001	1.000000000000000E+000	-8.2689803E-006	12	7.2625291E-005
2	1	0	1	1	1.228999968952849E-001	4.6653536E-001	4.6700451E-001	1.144069338010423E-001	1.000000000000000E+000	-8.0090476E-006	12	5.3428554E-005
2	1	0	1	1	1.248999968447606E-001	4.4657889E-001	4.4701999E-001	8.883423937691570E-002	1.000000000000000E+000	-7.8086350E-006	12	3.9710681E-005
2	1	0	1	1	1.268999967942364E-001	4.2662242E-001	4.2704397E-001	6.813837976773773E-002	1.000000000000000E+000	-7.6538427E-006	12	2.9098084E-005
2	1	0	1	1	1.288999967437121E-001	4.0661594E-001	4.0702334E-001	5.051455444077479E-002	1.000000000000000E+000	-7.5370344E-006	12	2.0560603E-005
2	1	0	1	1	1.308999966931879E-001	3.8660944E-001	3.8700700E-001	3.474248616718492E-002	1.000000000000000E+000	-7.4533891E-006	12	1.3445585E-005
2	1	0	1	1	1.328999966426636E-001	3.6660299E-001	3.6698958E-001	2.018962540730879E-002	1.000000000000000E+000	-7.3999558E-006	12	7.4093823E-006
2	1	0	1	1	1.348999965921394E-001	3.4659648E-001	3.4699866E-001	6.077998479447136E-003	1.000000000000000E+000	-7.3750984E-006	12	2.1090573E-006
2	0	0	1	1	1.368999965416151E-001	3.2659000E-001	3.2701737E-001	-8.212240584599476E-003	1.000000000000000E+000	-7.3786541E-006	12	-2.6855453E-006
2	0	0	1	1	1.388999964910909E-001	3.0658352E-001	3.0698931E-001	-2.352931328702340E-002	1.000000000000000E+000	-7.4118880E-006	12	-7.2232478E-006
2	0	0	1	1	1.408999964405666E-001	2.8657705E-001	2.8698039E-001	-4.089052198145898E-002	1.000000000000000E+000	-7.4779550E-006	12	-1.1734778E-005
2	0	0	1	1	1.428999963900424E-001	2.6657057E-001	2.6701182E-001	-6.172050972721393E-002	1.000000000000000E+000	-7.5825374E-006	12	-1.6480106E-005
2	0	0	1	1	1.448999963395181E-001	2.4656412E-001	2.4702622E-001	-8.724943530170200E-002	1.000000000000000E+000	-7.7338645E-006	12	-2.1552898E-005
2	0	0	1	1	1.468999962889939E-001	2.2655763E-001	2.2701412E-001	-1.182760987673344E-001	1.000000000000000E+000	-7.9423180E-006	12	-2.6850345E-005
2	0	0	1	1	1.488999962384696E-001	2.0655115E-001	2.0699988E-001	-1.545297626790769E-001	1.000000000000000E+000	-8.2185798E-006	12	-3.1987642E-005
2	0	0	1	1	1.508999961879454E-001	1.8654467E-001	1.8703340E-001	-1.938275638838403E-001	1.000000000000000E+000	-8.5707807E-006	12	-3.6252230E-005
2	0	0	1	1	1.528999961374211E-001	1.6653821E-001	1.6699794E-001	-2.328006247278402E-001	1.000000000000000E+000	-9.0013364E-006	12	-3.8877224E-005
2	0	0	1	1	1.548999960868969E-001	1.4653173E-001	1.4696357E-001	-2.670059504065035E-001	1.000000000000000E+000	-9.5047408E-006	12	-3.9240145E-005
2	0	0	1	1	1.568999960363726E-001	1.2662527E-001	1.2703209E-001	-2.928895830991678E-001	1.000000000000000E+000	-1.0067464E-005	12	-3.7206373E-005
2	0	0	1	1	1.588999959858484E-001	1.0661880E-001	1.0701362E-001	-3.099108973110556E-001	1.000000000000000E+000	-1.0672274E-005	12	-3.3164688E-005
2	0	0	1	1	1.608999959353241E-001	8.6612329E-002	8.6981349E-002	-3.183412062482800E-001	1.000000000000000E+000	-1.1301577E-005	12	-2.7689748E-005
2	0	0	1	1	1.628999958847999E-001	6.6605851E-002	6.6964991E-002	-3.207344567636019E-001	1.000000000000000E+000	-1.1941059E-005	12	-2.1477979E-005
2	0	0	1	1	1.648999958342756E-001	4.6599369E-002	4.6907265E-002	-3.196260713868666E-001	1.000000000000000E+000	-1.2581419E-005	12	-1.4992785E-005
2	0	0	1	1	1.668999957837514E-001	2.6592894E-002	2.6916377E-002	-3.169726908090524E-001	1.000000000000000E+000	-1.3217806E-005	12	-8.5317570E-006
2	0	0	1	1	1.685999957408058E-001	9.5873894E-003	9.9337250E-003	-3.144239786197427E-001	1.000000000000000E+000	-1.3754571E-005	12	-3.1234013E-006
2	0	0	0	1	1.693999957205961E-001	1.5847987E-003	1.9656944E-003	-3.131050169467926E-001	1.000000000000000E+000	-1.4005757E-005	12	-6.1546876E-007
2	0	0	1	1	1.695999957155436E-001	-4.1584956E-004	-7.7635566E-005	-3.128254711627960E-001	1.000000000000000E+000	-1.4068322E-005	12	2.4286383E-008